77,20106,219817,0
78,20101,219810,0
79,20104,219812,0
80,20103,219803,0
81,20105,219811,0
82,20101,219809,0
83,20101,219807,0
84,20102,219819,0
85,20100,219813,0
86,20100,219803,0
87,20100,219812,0
88,20097,219803,0
89,20100,219805,0
90,20103,219795,0
91,20100,219800,0
92,20100,219805,0
93,20097,219794,0
94,20099,219784,0
95,20097,219780,0
96,20093,219806,0
97,20093,219781,0
98,20093,219783,0
99,20092,219775,0
100,20096,219780,0
101,20094,219796,0
102,20095,219781,0
103,20096,219790,0
104,20090,219767,0
105,20088,219776,0
106,20091,219762,0
107,20091,219784,0
108,20087,219777,0
109,20092,219765,0
110,20091,219768,0
111,20093,219784,0
112,20086,219778,0
113,20090,219763,0
114,20086,219752,0
115,20087,219754,0
116,20085,219764,0
117,20087,219767,0
118,20084,219752,0
119,20088,219757,0
120,20085,219760,0
121,20085,219759,0
122,20082,219761,0
123,20084,219759,0
124,20082,219743,0
125,20081,219738,0
126,20081,219744,0
127,20083,219726,0
128,20081,219729,0
129,20082,219731,0
130,20083,219747,0
131,20083,219737,0
132,20083,219719,0
133,20081,219720,0
134,20079,219732,0
135,20082,219718,0
136,20082,219733,0
137,20080,219714,0
138,20081,219727,0
139,20078,219722,0
140,20077,219729,0
141,20078,219720,0
142,20078,219716,0
143,20078,219725,0
144,20076,219722,0
145,20077,219711,0
146,20074,219705,0
147,20075,219718,0
148,20077,219708,0
149,20075,219702,0
150,20076,219720,0
151,20075,219697,0
152,20075,219717,0
153,20077,219717,0
154,20075,219699,0
155,20076,219692,0
156,20073,219705,0
157,20074,219705,0
158,20073,219706,0
159,20069,219698,0
160,20072,219701,0
161,20072,219692,0
162,20068,219686,0
163,20069,219694,0
164,20067,219702,0
165,20066,219697,0
166,20065,219695,0
167,20068,219704,0
168,20068,219699,0
169,20069,219686,0
170,20069,219690,0
171,20071,219684,0
172,20067,219657,0
173,20068,219686,0
174,20067,219672,0
175,20067,219677,0
176,20067,219667,0
177,20066,219668,0
178,20067,219672,0
179,20068,219655,0
180,20062,219642,0
181,20065,219670,0
182,20061,219659,0
183,20067,219687,0
184,20057,219653,0
185,20063,219680,0
186,20057,219668,0
187,20061,219676,0
188,20060,219669,0
189,20063,219653,0
190,20062,219654,0
191,20067,219659,0
192,20061,219663,0
193,20061,219638,0
194,20060,219648,0
195,20059,219650,0
196,20061,219650,0
197,20061,219660,0
198,20057,219640,0
199,20062,219643,0
200,20057,219634,0
201,20061,219638,0
202,20056,219645,0
203,20058,219641,0
204,20057,219623,0
205,20057,219643,0
206,20055,219650,0
207,20057,219631,0
208,20054,219627,0
209,20059,219644,0
210,20058,219641,0
211,20057,219628,0
212,20057,219648,0
213,20059,219645,0
214,20056,219638,0
215,20056,219647,0
216,20056,219637,0
217,20057,219632,0
218,20055,219630,0
219,20058,219650,0
220,20052,219639,0
221,20054,219636,0
222,20056,219631,0
223,20056,219630,0
224,20053,219620,0
225,20052,219637,0
226,20046,219620,0
227,20049,219623,0
228,20051,219618,0
229,20052,219611,0
230,20049,219617,0
231,20053,219627,0
232,20053,219619,0
233,20053,219605,0
234,20051,219617,0
235,20051,219596,0
236,20045,219595,0
237,20045,219591,0
238,20046,219585,0
239,20045,219583,0
240,20043,219578,0
241,20045,219583,0
242,20046,219592,0
243,20047,219588,0
244,20043,219586,0
245,20047,219596,0
246,20047,219593,0
247,20048,219607,0
248,20043,219591,0
249,20047,219595,0
250,20043,219597,0
251,20048,219589,0
252,20045,219564,0
253,20041,219568,0
254,20043,219557,0
255,20041,219554,0
256,20038,219536,0
257,20038,219529,0
258,20034,219506,0
259,20030,219493,0
260,20028,219471,0
261,20031,219483,0
262,20023,219465,0
263,20026,219453,0
264,20022,219472,0
265,20021,219454,0
266,20017,219450,0
267,20020,219478,0
268,20016,219456,0
269,20018,219446,0
270,20017,219461,0
271,20020,219453,0
272,20018,219455,0
273,20021,219462,0
274,20017,219439,0
275,20020,219453,0
276,20016,219446,0
277,20016,219436,0
278,20011,219451,0
279,20015,219429,0
280,20012,219440,0
281,20014,219447,0
282,20014,219445,0
283,20016,219452,0
284,20014,219428,0
285,20017,219461,0
286,20011,219447,0
287,20015,219447,0
288,20015,219447,0
289,20018,219441,0
290,20019,219450,0
291,20020,219458,0
292,20020,219447,0
293,20020,219449,0
294,20022,219463,0
295,20022,219454,0
296,20019,219462,0
297,20020,219452,0
298,20019,219449,0
299,20025,219467,0
300,20021,219474,0
301,20024,219442,0
302,20020,219466,0
303,20026,219453,0
304,20021,219458,0
305,20023,219455,0
306,20021,219452,0
307,20021,219481,0
308,20018,219462,0
309,20018,219470,0
310,20023,219470,0
311,20022,219454,0
312,20021,219439,0
313,20022,219452,0
314,20024,219457,0
315,20028,219471,0
316,20022,219456,0
317,20023,219471,0
318,20019,219475,0
319,20022,219461,0
320,20019,219464,0
321,20025,219464,0
322,20021,219466,0
323,20024,219475,0
324,20019,219470,0
325,20024,219462,0
326,20021,219473,0
327,20019,219480,0
328,20018,219463,0
329,20017,219460,0
330,20019,219486,0
331,20024,219473,0
332,20022,219470,0
333,20024,219490,0
334,20025,219488,0
335,20027,219491,0
336,20024,219483,0
337,20028,219490,0
338,20027,219475,0
339,20025,219479,0
340,20020,219472,0
341,20025,219492,0
342,20021,219464,0
343,20025,219468,0
344,20022,219469,0
345,20024,219454,0
346,20018,219462,0
347,20021,219483,0
348,20018,219442,0
349,20023,219469,0
350,20019,219457,0
351,20023,219436,0
352,20018,219460,0
353,20024,219452,0
354,20022,219449,0
355,20027,219461,0
356,20024,219460,0
357,20023,219454,0
358,20021,219438,0
359,20026,219449,0
360,20018,219446,0
361,20021,219440,0
362,20019,219437,0
363,20023,219440,0
364,20017,219456,0
365,20022,219442,0
366,20014,219439,0
367,20019,219453,0
368,20017,219446,0
369,20021,219456,0
370,20017,219442,0
371,20023,219439,0
372,20013,219444,0
373,20017,219452,0
374,20016,219459,0
375,20018,219460,0
376,20016,219459,0
377,20018,219483,0
378,20016,219457,0
379,20017,219472,0
380,20013,219455,0
381,20020,219446,0
382,20019,219441,0
383,20016,219469,0
384,20013,219466,0
385,20019,219441,0
386,20014,219471,0
387,20018,219455,0
388,20013,219472,0
389,20014,219460,0
390,20011,219448,0
391,20014,219442,0
392,20011,219450,0
393,20014,219437,0
394,20014,219450,0
395,20013,219428,0
396,20010,219409,0
397,20010,219409,0
398,20007,219374,0
399,20004,219390,0
400,20008,219394,0
401,20007,219361,0
402,20005,219364,0
403,20003,219356,0
404,19999,219353,0
405,19999,219334,0
406,19999,219334,0
407,19993,219330,0
408,19994,219328,0
409,19986,219323,0
410,19981,219300,0
411,19979,219282,0
412,19930,218593,0
413,18762,209091,0
414,17425,200436,0
415,16800,196805,0
416,16519,195256,0
417,16358,194362,0
418,16261,193807,0
419,16204,193432,0
420,16159,193198,0
421,16129,193089,0
422,16112,193063,0
423,16112,193175,0
424,16129,193504,0
425,16182,194302,0
426,16297,195710,0
427,16392,196697,0
428,16477,197585,0
429,16579,198685,0
430,16711,200029,0
431,16873,201684,0
432,17095,204038,0
433,17502,208655,0
434,18044,214233,0
435,18405,217797,0
436,18714,221081,0
437,19230,226563,0
438,20199,236554,0
439,22115,255162,0
440,25028,281577,0
441,28692,314063,0
442,32820,352279,0
443,37014,395137,0
444,40472,435573,0
445,43375,485054,0
446,44894,521982,0
447,45804,524287,0
448,46854,524287,0
449,47811,524287,0
450,48130,524287,0
451,48261,524287,0
452,48721,524287,0
453,49125,524287,0
454,49342,524287,0
455,49442,524287,0
456,49392,524287,0
457,49170,524287,0
458,49180,524287,0
459,49622,524287,0
460,49828,524287,0
461,49949,524287,0
462,50756,524287,0
463,50449,524287,0
464,49043,524287,0
465,48585,524287,0
466,49008,524287,0
467,49617,524287,0
468,49873,524287,0
469,49695,524287,0
470,49725,524287,0
471,49950,524287,0
472,50484,524287,0
473,49676,524287,0
474,47012,524287,0
475,44275,524287,0
476,42674,524287,0
477,43332,524287,0
478,45095,524287,0
479,45553,524287,0
480,45726,524287,0
481,45958,524287,0
482,46241,524287,0
483,46540,524287,0
484,46837,524287,0
485,47098,524287,0
486,47347,524287,0
487,47565,524287,0
488,47779,524287,0
489,47964,524287,0
490,48165,524287,0
491,48324,524287,0
492,48502,524287,0
493,48652,524287,0
494,48806,524287,0
495,48926,524287,0
496,49061,524287,0
497,49162,524287,0
498,49276,524287,0
499,49370,524287,0
500,49481,524287,0
501,49567,524287,0
502,49654,524287,0
503,49705,524287,0
504,49774,524287,0
505,49813,524287,0
506,49842,524287,0
507,49835,524287,0
508,49805,524287,0
509,49705,524287,0
510,49558,524287,0
511,49385,524287,0
512,49167,524287,0
513,48910,524287,0
514,48644,524287,0
515,48368,524287,0
516,48152,524287,0
517,47954,524287,0
518,47803,524287,0
519,47687,524287,0
520,47608,524287,0
521,47551,524287,0
522,47529,524287,0
523,47507,524287,0
524,47513,524287,0
525,47516,524287,0
526,47525,524287,0
527,47536,524287,0
528,47539,524287,0
529,47543,524287,0
530,47553,524287,0
531,47562,524287,0
532,47586,524287,0
533,47598,524287,0
534,47616,524287,0
535,47620,524287,0
536,47638,524287,0
537,47657,524287,0
538,47679,524287,0
539,47686,524287,0
540,47696,524287,0
541,47700,524287,0
542,47705,524287,0
543,47691,524287,0
544,47691,524287,0
545,47688,524287,0
546,47685,524287,0
547,47685,524287,0
548,47700,524287,0
549,47704,524287,0
550,47723,524287,0
551,47745,524287,0
552,47769,524287,0
553,47794,524287,0
554,47832,524287,0
555,47864,524287,0
556,47907,524287,0
557,47943,524287,0
558,47983,524287,0
559,48013,524287,0
560,48046,524287,0
561,48067,524287,0
562,48110,524287,0
563,48140,524287,0
564,48178,524287,0
565,48214,524287,0
566,48251,524287,0
567,48275,524287,0
568,48312,524287,0
569,48335,524287,0
570,48369,524287,0
571,48389,524287,0
572,48418,524287,0
573,48439,524287,0
574,48473,524287,0
575,48502,524287,0
576,48534,524287,0
577,48561,524287,0
578,48593,524287,0
579,48617,524287,0
580,48646,524287,0
581,48660,524287,0
582,48690,524287,0
583,48709,524287,0
584,48749,524287,0
585,48793,524287,0
586,48833,524287,0
587,48870,524287,0
588,48926,524287,0
589,48976,524287,0
590,49039,524287,0
591,49082,524287,0
592,49123,524287,0
593,49156,524287,0
594,49202,524287,0
595,49227,524287,0
596,49260,524287,0
597,49258,524287,0
598,49241,524287,0
599,49173,524287,0
600,49076,524287,0
601,48935,524287,0
602,48791,524287,0
603,48609,524287,0
604,48450,524287,0
605,48279,524287,0
606,48140,524287,0
607,48004,524287,0
608,47923,524287,0
609,47851,524287,0
610,47813,524287,0
611,47780,524287,0
612,47770,524287,0
613,47769,524287,0
614,47788,524287,0
615,47795,524287,0
616,47824,524287,0
617,47837,524287,0
618,47852,524287,0
619,47861,524287,0
620,47877,524287,0
621,47886,524287,0
622,47912,524287,0
623,47924,524287,0
624,47948,524287,0
625,47962,524287,0
626,47982,524287,0
627,47984,524287,0
628,48001,524287,0
629,47995,524287,0
630,47993,524287,0
631,47979,524287,0
632,47968,524287,0
633,47946,524287,0
634,47934,524287,0
635,47916,524287,0
636,47914,524287,0
637,47911,524287,0
638,47923,524287,0
639,47931,524287,0
640,47947,524287,0
641,47967,524287,0
642,48002,524287,0
643,48023,524287,0
644,48071,524287,0
645,48108,524287,0
646,48153,524287,0
647,48194,524287,0
648,48243,524287,0
649,48279,524287,0
650,48320,524287,0
651,48358,524287,0
652,48398,524287,0
653,48425,524287,0
654,48461,524287,0
655,48489,524287,0
656,48521,524287,0
657,48542,524287,0
658,48563,524287,0
659,48579,524287,0
660,48608,524287,0
661,48616,524287,0
662,48638,524287,0
663,48648,524287,0
664,48668,524287,0
665,48689,524287,0
666,48710,524287,0
667,48727,524287,0
668,48743,524287,0
669,48765,524287,0
670,48792,524287,0
671,48818,524287,0
672,48846,524287,0
673,48871,524287,0
674,48893,524287,0
675,48917,524287,0
676,48930,524287,0
677,48926,524287,0
678,48884,524287,0
679,48811,524287,0
680,48707,524287,0
681,48563,524287,0
682,48403,524287,0
683,48233,524287,0
684,48072,524287,0
685,47917,524287,0
686,47779,524287,0
687,47665,524287,0
688,47575,524287,0
689,47507,524287,0
690,47460,524287,0
691,47425,524287,0
692,47413,524287,0
693,47397,524287,0
694,47392,524287,0
695,47382,524287,0
696,47377,524287,0
697,47376,524287,0
698,47370,524287,0
699,47370,524287,0
700,47362,524287,0
701,47368,524287,0
702,47384,524287,0
703,47386,524287,0
704,47399,524287,0
705,47412,524287,0
706,47410,524287,0
707,47408,524287,0
708,47398,524287,0
709,47373,524287,0
710,47332,524287,0
711,47293,524287,0
712,47250,524287,0
713,47197,524287,0
714,47159,524287,0
715,47127,524287,0
716,47107,524287,0
717,47102,524287,0
718,47089,524287,0
719,47091,524287,0
720,47106,524287,0
721,47124,524287,0
722,47140,524287,0
723,47169,524287,0
724,47193,524287,0
725,47227,524287,0
726,47257,524287,0
727,47296,524287,0
728,47332,524287,0
729,47375,524287,0
730,47413,524287,0
731,47446,524287,0
732,47485,524287,0
733,47520,524287,0
734,47552,524287,0
735,47592,524287,0
736,47619,524287,0
737,47651,524287,0
738,47684,524287,0
739,47707,524287,0
740,47738,524287,0
741,47767,524287,0
742,47788,524287,0
743,47818,524287,0
744,47844,524287,0
745,47867,524287,0
746,47887,524287,0
747,47922,524287,0
748,47938,524287,0
749,47969,524287,0
750,47995,524287,0
751,48020,524287,0
752,48045,524287,0
753,48070,524287,0
754,48099,524287,0
755,48128,524287,0
756,48156,524287,0
757,48174,524287,0
758,48196,524287,0
759,48196,524287,0
760,48148,524287,0
761,48102,524287,0
762,47936,524287,0
763,47776,524287,0
764,47580,524287,0
765,47382,524287,0
766,47164,524287,0
767,46979,524287,0
768,46831,524287,0
769,46707,524287,0
770,46608,524287,0
771,46554,524287,0
772,46504,524287,0
773,46498,524287,0
774,46479,524287,0
775,46486,524287,0
776,46492,524287,0
777,46502,524287,0
778,46504,524287,0
779,46506,524287,0
780,46479,524287,0
781,46470,524287,0
782,46451,524287,0
783,46443,524287,0
784,46431,524287,0
785,46445,524287,0
786,46437,524287,0
787,46441,524287,0
788,46435,524287,0
789,46446,524287,0
790,46438,524287,0
791,46452,524287,0
792,46444,524287,0
793,46445,524287,0
794,46439,524287,0
795,46437,524287,0
796,46426,524287,0
797,46430,524287,0
798,46421,524287,0
799,46439,524287,0
800,46455,524287,0
801,46486,524287,0
802,46503,524287,0
803,46542,524287,0
804,46566,524287,0
805,46616,524287,0
806,46651,524287,0
807,46699,524287,0
808,46745,524287,0
809,46795,524287,0
810,46826,524287,0
811,46876,524287,0
812,46905,524287,0
813,46944,524287,0
814,46961,524287,0
815,47005,524287,0
816,47027,524287,0
817,47066,524287,0
818,47090,524287,0
819,47129,524287,0
820,47156,524287,0
821,47200,524287,0
822,47211,524287,0
823,47245,524287,0
824,47259,524287,0
825,47301,524287,0
826,47312,524287,0
827,47351,524287,0
828,47353,524287,0
829,47380,524287,0
830,47388,524287,0
831,47406,524287,0
832,47402,524287,0
833,47426,524287,0
834,47420,524287,0
835,47453,524287,0
836,47457,524287,0
837,47480,524287,0
838,47483,524287,0
839,47513,524287,0
840,47511,524287,0
841,47543,524287,0
842,47539,524287,0
843,47549,524287,0
844,47509,524287,0
845,47468,524287,0
846,47362,524287,0
847,47240,524287,0
848,47058,524287,0
849,46879,524287,0
850,46672,524287,0
851,46504,524287,0
852,46310,524287,0
853,46185,524287,0
854,46063,524287,0
855,45990,524287,0
856,45925,524287,0
857,45911,524287,0
858,45883,524287,0
859,45891,524287,0
860,45888,524287,0
861,45906,524287,0
862,45904,524287,0
863,45925,524287,0
864,45918,524287,0
865,45937,524287,0
866,45928,524287,0
867,45951,524287,0
868,45952,524287,0
869,45981,524287,0
870,45988,524287,0
871,46031,524287,0
872,46036,524287,0
873,46066,524287,0
874,46067,524287,0
875,46096,524287,0
876,46089,524287,0
877,46109,524287,0
878,46089,524287,0
879,46098,524287,0
880,46079,524287,0
881,46096,524287,0
882,46087,524287,0
883,46106,524287,0
884,46104,524287,0
885,46136,524287,0
886,46133,524287,0
887,46166,524287,0
888,46182,524287,0
889,46224,524287,0
890,46241,524287,0
891,46292,524287,0
892,46311,524287,0
893,46356,524287,0
894,46378,524287,0
895,46427,524287,0
896,46443,524287,0
897,46491,524287,0
898,46502,524287,0
899,46551,524287,0
900,46562,524287,0
901,46606,524287,0
902,46615,524287,0
903,46651,524287,0
904,46648,524287,0
905,46680,524287,0
906,46682,524287,0
907,46712,524287,0
908,46713,524287,0
909,46741,524287,0
910,46736,524287,0
911,46756,524287,0
912,46756,524287,0
913,46788,524287,0
914,46782,524287,0
915,46811,524287,0
916,46817,524287,0
917,46849,524287,0
918,46856,524287,0
919,46886,524287,0
920,46901,524287,0
921,46935,524287,0
922,46949,524287,0
923,46988,524287,0
924,47000,524287,0
925,47039,524287,0
926,47045,524287,0
927,47075,524287,0
928,47057,524287,0
929,47030,524287,0
930,46928,524287,0
931,46813,524287,0
932,46638,524287,0
933,46470,524287,0
934,46262,524287,0
935,46087,524287,0
936,45904,524287,0
937,45780,524287,0
938,45658,524287,0
939,45589,524287,0
940,45528,524287,0
941,45513,524287,0
942,45492,524287,0
943,45512,524287,0
944,45509,524287,0
945,45549,524287,0
946,45561,524287,0
947,45594,524287,0
948,45598,524287,0
949,45624,524287,0
950,45619,524287,0
951,45653,524287,0
952,45659,524287,0
953,45696,524287,0
954,45700,524287,0
955,45736,524287,0
956,45728,524287,0
957,45747,524287,0
958,45730,524287,0
959,45734,524287,0
960,45687,524287,0
961,45674,524287,0
962,45626,524287,0
963,45617,524287,0
964,45578,524287,0
965,45577,524287,0
966,45556,524287,0
967,45575,524287,0
968,45562,524287,0
969,45600,524287,0
970,45604,524287,0
971,45649,524287,0
972,45657,524287,0
973,45712,524287,0
974,45724,524287,0
975,45779,524287,0
976,45796,524287,0
977,45857,524287,0
978,45869,524287,0
979,45934,524287,0
980,45943,524287,0
981,46001,524287,0
982,46011,524287,0
983,46062,524287,0
984,46061,524287,0
985,46108,524287,0
986,46108,524287,0
987,46157,524287,0
988,46149,524287,0
989,46190,524287,0
990,46171,524287,0
991,46217,524287,0
992,46203,524287,0
993,46246,524287,0
994,46234,524287,0
995,46280,524287,0
996,46281,524287,0
997,46340,524287,0
998,46335,524287,0
999,46385,524287,0
1000,46385,524287,0
1001,46431,524287,0
1002,46422,524287,0
1003,46459,524287,0
1004,46423,524287,0
1005,46402,524287,0
1006,46293,524287,0
1007,46196,524287,0
1008,46010,524287,0
1009,45860,524287,0
1010,45665,524287,0
1011,45519,524287,0
1012,45347,524287,0
1013,45251,524287,0
1014,45136,524287,0
1015,45084,524287,0
1016,45019,524287,0
1017,45025,524287,0
1018,44994,524287,0
1019,45022,524287,0
1020,45015,524287,0
1021,45051,524287,0
1022,45037,524287,0
1023,45074,524287,0
1024,45054,524287,0
1025,45072,524287,0
1026,45048,524287,0
1027,45074,524287,0
1028,45054,524287,0
1029,45088,524287,0
1030,45080,524287,0
1031,45118,524287,0
1032,45110,524287,0
1033,45146,524287,0
1034,45136,524287,0
1035,45168,524287,0
1036,45153,524287,0
1037,45178,524287,0
1038,45157,524287,0
1039,45182,524287,0
1040,45165,524287,0
1041,45195,524287,0
1042,45183,524287,0
1043,45221,524287,0
1044,45227,524287,0
1045,45282,524287,0
1046,45304,524287,0
1047,45367,524287,0
1048,45393,524287,0
1049,45464,524287,0
1050,45485,524287,0
1051,45555,524287,0
1052,45573,524287,0
1053,45636,524287,0
1054,45657,524287,0
1055,45720,524287,0
1056,45742,524287,0
1057,45801,524287,0
1058,45822,524287,0
1059,45875,524287,0
1060,45892,524287,0
1061,45947,524287,0
1062,45956,524287,0
1063,46000,524287,0
1064,46008,524287,0
1065,46048,524287,0
1066,46050,524287,0
1067,46089,524287,0
1068,46089,524287,0
1069,46112,524287,0
1070,46105,524287,0
1071,46142,524287,0
1072,46137,524287,0
1073,46170,524287,0
1074,46173,524287,0
1075,46207,524287,0
1076,46215,524287,0
1077,46261,524287,0
1078,46273,524287,0
1079,46324,524287,0
1080,46335,524287,0
1081,46388,524287,0
1082,46394,524287,0
1083,46440,524287,0
1084,46444,524287,0
1085,46460,524287,0
1086,46411,524287,0
1087,46349,524287,0
1088,46205,524287,0
1089,46049,524287,0
1090,45844,524287,0
1091,45658,524287,0
1092,45451,524287,0
1093,45299,524287,0
1094,45149,524287,0
1095,45055,524287,0
1096,44967,524287,0
1097,44935,524287,0
1098,44903,524287,0
1099,44906,524287,0
1100,44904,524287,0
1101,44930,524287,0
1102,44940,524287,0
1103,44970,524287,0
1104,44974,524287,0
1105,44998,524287,0
1106,44992,524287,0
1107,45003,524287,0
1108,45003,524287,0
1109,45018,524287,0
1110,45030,524287,0
1111,45063,524287,0
1112,45076,524287,0
1113,45104,524287,0
1114,45122,524287,0
1115,45143,524287,0
1116,45146,524287,0
1117,45159,524287,0
1118,45153,524287,0
1119,45158,524287,0
1120,45151,524287,0
1121,45154,524287,0
1122,45139,524287,0
1123,45149,524287,0
1124,45147,524287,0
1125,45164,524287,0
1126,45174,524287,0
1127,45203,524287,0
1128,45225,524287,0
1129,45262,524287,0
1130,45283,524287,0
1131,45328,524287,0
1132,45361,524287,0
1133,45410,524287,0
1134,45436,524287,0
1135,45481,524287,0
1136,45515,524287,0
1137,45557,524287,0
1138,45585,524287,0
1139,45629,524287,0
1140,45656,524287,0
1141,45697,524287,0
1142,45721,524287,0
1143,45744,524287,0
1144,45764,524287,0
1145,45796,524287,0
1146,45816,524287,0
1147,45835,524287,0
1148,45857,524287,0
1149,45887,524287,0
1150,45907,524287,0
1151,45926,524287,0
1152,45943,524287,0
1153,45972,524287,0
1154,45991,524287,0
1155,46010,524287,0
1156,46039,524287,0
1157,46061,524287,0
1158,46086,524287,0
1159,46110,524287,0
1160,46137,524287,0
1161,46164,524287,0
1162,46192,524287,0
1163,46228,524287,0
1164,46258,524287,0
1165,46284,524287,0
1166,46308,524287,0
1167,46338,524287,0
1168,46366,524287,0
1169,46380,524287,0
1170,46372,524287,0
1171,46325,524287,0
1172,46232,524287,0
1173,46099,524287,0
1174,45925,524287,0
1175,45732,524287,0
1176,45543,524287,0
1177,45361,524287,0
1178,45207,524287,0
1179,45086,524287,0
1180,44994,524287,0
1181,44939,524287,0
1182,44897,524287,0
1183,44884,524287,0
1184,44891,524287,0
1185,44898,524287,0
1186,44919,524287,0
1187,44941,524287,0
1188,44957,524287,0
1189,44978,524287,0
1190,45002,524287,0
1191,45007,524287,0
1192,45016,524287,0
1193,45029,524287,0
1194,45047,524287,0
1195,45066,524287,0
1196,45098,524287,0
1197,45122,524287,0
1198,45143,524287,0
1199,45167,524287,0
1200,45182,524287,0
1201,45183,524287,0
1202,45183,524287,0
1203,45175,524287,0
1204,45176,524287,0
1205,45162,524287,0
1206,45156,524287,0
1207,45152,524287,0
1208,45155,524287,0
1209,45162,524287,0
1210,45173,524287,0
1211,45194,524287,0
1212,45221,524287,0
1213,45253,524287,0
1214,45282,524287,0
1215,45317,524287,0
1216,45359,524287,0
1217,45404,524287,0
1218,45445,524287,0
1219,45482,524287,0
1220,45529,524287,0
1221,45565,524287,0
1222,45600,524287,0
1223,45639,524287,0
1224,45673,524287,0
1225,45709,524287,0
1226,45741,524287,0
1227,45772,524287,0
1228,45797,524287,0
1229,45828,524287,0
1230,45856,524287,0
1231,45877,524287,0
1232,45898,524287,0
1233,45923,524287,0
1234,45936,524287,0
1235,45961,524287,0
1236,45986,524287,0
1237,46008,524287,0
1238,46023,524287,0
1239,46049,524287,0
1240,46065,524287,0
1241,46092,524287,0
1242,46109,524287,0
1243,46132,524287,0
1244,46149,524287,0
1245,46180,524287,0
1246,46204,524287,0
1247,46235,524287,0
1248,46259,524287,0
1249,46294,524287,0
1250,46315,524287,0
1251,46357,524287,0
1252,46383,524287,0
1253,46422,524287,0
1254,46442,524287,0
1255,46468,524287,0
1256,46471,524287,0
1257,46460,524287,0
1258,46385,524287,0
1259,46282,524287,0
1260,46108,524287,0
1261,45928,524287,0
1262,45725,524287,0
1263,45546,524287,0
1264,45365,524287,0
1265,45245,524287,0
1266,45127,524287,0
1267,45069,524287,0
1268,45013,524287,0
1269,45013,524287,0
1270,45005,524287,0
1271,45035,524287,0
1272,45045,524287,0
1273,45092,524287,0
1274,45104,524287,0
1275,45150,524287,0
1276,45165,524287,0
1277,45202,524287,0
1278,45201,524287,0
1279,45241,524287,0
1280,45251,524287,0
1281,45294,524287,0
1282,45296,524287,0
1283,45342,524287,0
1284,45341,524287,0
1285,45370,524287,0
1286,45351,524287,0
1287,45368,524287,0
1288,45331,524287,0
1289,45331,524287,0
1290,45294,524287,0
1291,45297,524287,0
1292,45259,524287,0
1293,45268,524287,0
1294,45247,524287,0
1295,45269,524287,0
1296,45262,524287,0
1297,45296,524287,0
1298,45304,524287,0
1299,45351,524287,0
1300,45364,524287,0
1301,45421,524287,0
1302,45434,524287,0
1303,45497,524287,0
1304,45511,524287,0
1305,45575,524287,0
1306,45594,524287,0
1307,45655,524287,0
1308,45671,524287,0
1309,45727,524287,0
1310,45741,524287,0
1311,45794,524287,0
1312,45802,524287,0
1313,45848,524287,0
1314,45852,524287,0
1315,45897,524287,0
1316,45899,524287,0
1317,45939,524287,0
1318,45939,524287,0
1319,45972,524287,0
1320,45973,524287,0
1321,46008,524287,0
1322,45996,524287,0
1323,46035,524287,0
1324,46033,524287,0
1325,46076,524287,0
1326,46071,524287,0
1327,46111,524287,0
1328,46120,524287,0
1329,46167,524287,0
1330,46171,524287,0
1331,46216,524287,0
1332,46225,524287,0
1333,46266,524287,0
1334,46267,524287,0
1335,46280,524287,0
1336,46229,524287,0
1337,46174,524287,0
1338,46027,524287,0
1339,45878,524287,0
1340,45683,524287,0
1341,45512,524287,0
1342,45314,524287,0
1343,45180,524287,0
1344,45037,524287,0
1345,44961,524287,0
1346,44884,524287,0
1347,44864,524287,0
1348,44839,524287,0
1349,44848,524287,0
1350,44847,524287,0
1351,44877,524287,0
1352,44884,524287,0
1353,44915,524287,0
1354,44928,524287,0
1355,44959,524287,0
1356,44960,524287,0
1357,44980,524287,0
1358,44984,524287,0
1359,45007,524287,0
1360,45011,524287,0
1361,45045,524287,0
1362,45059,524287,0
1363,45098,524287,0
1364,45098,524287,0
1365,45119,524287,0
1366,45123,524287,0
1367,45125,524287,0
1368,45108,524287,0
1369,45107,524287,0
1370,45094,524287,0
1371,45092,524287,0
1372,45082,524287,0
1373,45089,524287,0
1374,45091,524287,0
1375,45108,524287,0
1376,45120,524287,0
1377,45155,524287,0
1378,45182,524287,0
1379,45219,524287,0
1380,45252,524287,0
1381,45301,524287,0
1382,45342,524287,0
1383,45382,524287,0
1384,45422,524287,0
1385,45470,524287,0
1386,45503,524287,0
1387,45545,524287,0
1388,45581,524287,0
1389,45621,524287,0
1390,45646,524287,0
1391,45680,524287,0
1392,45708,524287,0
1393,45737,524287,0
1394,45760,524287,0
1395,45783,524287,0
1396,45810,524287,0
1397,45828,524287,0
1398,45851,524287,0
1399,45866,524287,0
1400,45892,524287,0
1401,45907,524287,0
1402,45927,524287,0
1403,45939,524287,0
1404,45970,524287,0
1405,45984,524287,0
1406,46006,524287,0
1407,46025,524287,0
1408,46056,524287,0
1409,46070,524287,0
1410,46103,524287,0
1411,46123,524287,0
1412,46161,524287,0
1413,46186,524287,0
1414,46221,524287,0
1415,46240,524287,0
1416,46282,524287,0
1417,46291,524287,0
1418,46325,524287,0
1419,46308,524287,0
1420,46284,524287,0
1421,46185,524287,0
1422,46059,524287,0
1423,45869,524287,0
1424,45675,524287,0
1425,45461,524287,0
1426,45294,524287,0
1427,45114,524287,0
1428,45000,524287,0
1429,44895,524287,0
1430,44846,524287,0
1431,44787,524287,0
1432,44790,524287,0
1433,44774,524287,0
1434,44810,524287,0
1435,44804,524287,0
1436,44848,524287,0
1437,44854,524287,0
1438,44895,524287,0
1439,44885,524287,0
1440,44911,524287,0
1441,44896,524287,0
1442,44927,524287,0
1443,44907,524287,0
1444,44943,524287,0
1445,44936,524287,0
1446,44979,524287,0
1447,44978,524287,0
1448,45011,524287,0
1449,45006,524287,0
1450,45037,524287,0
1451,45015,524287,0
1452,45039,524287,0
1453,45016,524287,0
1454,45032,524287,0
1455,45002,524287,0
1456,45021,524287,0
1457,45000,524287,0
1458,45034,524287,0
1459,45022,524287,0
1460,45061,524287,0
1461,45058,524287,0
1462,45114,524287,0
1463,45118,524287,0
1464,45171,524287,0
1465,45180,524287,0
1466,45240,524287,0
1467,45257,524287,0
1468,45316,524287,0
1469,45335,524287,0
1470,45394,524287,0
1471,45410,524287,0
1472,45468,524287,0
1473,45481,524287,0
1474,45529,524287,0
1475,45537,524287,0
1476,45594,524287,0
1477,45598,524287,0
1478,45645,524287,0
1479,45646,524287,0
1480,45692,524287,0
1481,45688,524287,0
1482,45735,524287,0
1483,45737,524287,0
1484,45784,524287,0
1485,45786,524287,0
1486,45823,524287,0
1487,45831,524287,0
1488,45873,524287,0
1489,45873,524287,0
1490,45913,524287,0
1491,45924,524287,0
1492,45971,524287,0
1493,45971,524287,0
1494,46021,524287,0
1495,46034,524287,0
1496,46080,524287,0
1497,46097,524287,0
1498,46149,524287,0
1499,46175,524287,0
1500,46231,524287,0
1501,46252,524287,0
1502,46306,524287,0
1503,46339,524287,0
1504,46385,524287,0
1505,46395,524287,0
1506,46421,524287,0
1507,46380,524287,0
1508,46310,524287,0
1509,46167,524287,0
1510,45998,524287,0
1511,45790,524287,0
1512,45597,524287,0
1513,45403,524287,0
1514,45245,524287,0
1515,45109,524287,0
1516,45021,524287,0
1517,44954,524287,0
1518,44928,524287,0
1519,44911,524287,0
1520,44922,524287,0
1521,44941,524287,0
1522,44977,524287,0
1523,45005,524287,0
1524,45042,524287,0
1525,45066,524287,0
1526,45104,524287,0
1527,45124,524287,0
1528,45145,524287,0
1529,45165,524287,0
1530,45188,524287,0
1531,45212,524287,0
1532,45239,524287,0
1533,45262,524287,0
1534,45288,524287,0
1535,45299,524287,0
1536,45310,524287,0
1537,45319,524287,0
1538,45313,524287,0
1539,45310,524287,0
1540,45297,524287,0
1541,45293,524287,0
1542,45278,524287,0
1543,45275,524287,0
1544,45267,524287,0
1545,45275,524287,0
1546,45278,524287,0
1547,45301,524287,0
1548,45309,524287,0
1549,45348,524287,0
1550,45373,524287,0
1551,45419,524287,0
1552,45454,524287,0
1553,45497,524287,0
1554,45537,524287,0
1555,45583,524287,0
1556,45614,524287,0
1557,45659,524287,0
1558,45682,524287,0
1559,45722,524287,0
1560,45748,524287,0
1561,45787,524287,0
1562,45807,524287,0
1563,45840,524287,0
1564,45860,524287,0
1565,45901,524287,0
1566,45916,524287,0
1567,45951,524287,0
1568,45961,524287,0
1569,45994,524287,0
1570,46005,524287,0
1571,46033,524287,0
1572,46043,524287,0
1573,46075,524287,0
1574,46076,524287,0
1575,46104,524287,0
1576,46111,524287,0
1577,46147,524287,0
1578,46155,524287,0
1579,46195,524287,0
1580,46206,524287,0
1581,46251,524287,0
1582,46269,524287,0
1583,46318,524287,0
1584,46338,524287,0
1585,46385,524287,0
1586,46412,524287,0
1587,46458,524287,0
1588,46480,524287,0
1589,46505,524287,0
1590,46484,524287,0
1591,46453,524287,0
1592,46350,524287,0
1593,46218,524287,0
1594,46032,524287,0
1595,45854,524287,0
1596,45656,524287,0
1597,45503,524287,0
1598,45363,524287,0
1599,45265,524287,0
1600,45185,524287,0
1601,45150,524287,0
1602,45120,524287,0
1603,45127,524287,0
1604,45138,524287,0
1605,45175,524287,0
1606,45203,524287,0
1607,45248,524287,0
1608,45271,524287,0
1609,45309,524287,0
1610,45332,524287,0
1611,45371,524287,0
1612,45384,524287,0
1613,45424,524287,0
1614,45453,524287,0
1615,45501,524287,0
1616,45526,524287,0
1617,45557,524287,0
1618,45566,524287,0
1619,45574,524287,0
1620,45566,524287,0
1621,45557,524287,0
1622,45523,524287,0
1623,45507,524287,0
1624,45473,524287,0
1625,45463,524287,0
1626,45438,524287,0
1627,45434,524287,0
1628,45432,524287,0
1629,45447,524287,0
1630,45459,524287,0
1631,45491,524287,0
1632,45515,524287,0
1633,45560,524287,0
1634,45593,524287,0
1635,45648,524287,0
1636,45686,524287,0
1637,45737,524287,0
1638,45779,524287,0
1639,45829,524287,0
1640,45863,524287,0
1641,45905,524287,0
1642,45937,524287,0
1643,45979,524287,0
1644,46008,524287,0
1645,46044,524287,0
1646,46071,524287,0
1647,46103,524287,0
1648,46127,524287,0
1649,46153,524287,0
1650,46176,524287,0
1651,46199,524287,0
1652,46220,524287,0
1653,46236,524287,0
1654,46254,524287,0
1655,46275,524287,0
1656,46292,524287,0
1657,46310,524287,0
1658,46328,524287,0
1659,46348,524287,0
1660,46376,524287,0
1661,46401,524287,0
1662,46424,524287,0
1663,46447,524287,0
1664,46483,524287,0
1665,46513,524287,0
1666,46541,524287,0
1667,46565,524287,0
1668,46595,524287,0
1669,46613,524287,0
1670,46622,524287,0
1671,46586,524287,0
1672,46512,524287,0
1673,46375,524287,0
1674,46210,524287,0
1675,45991,524287,0
1676,45785,524287,0
1677,45588,524287,0
1678,45422,524287,0
1679,45277,524287,0
1680,45171,524287,0
1681,45100,524287,0
1682,45058,524287,0
1683,45028,524287,0
1684,45035,524287,0
1685,45037,524287,0
1686,45060,524287,0
1687,45076,524287,0
1688,45107,524287,0
1689,45125,524287,0
1690,45148,524287,0
1691,45158,524287,0
1692,45175,524287,0
1693,45172,524287,0
1694,45191,524287,0
1695,45192,524287,0
1696,45216,524287,0
1697,45232,524287,0
1698,45260,524287,0
1699,45273,524287,0
1700,45288,524287,0
1701,45289,524287,0
1702,45302,524287,0
1703,45291,524287,0
1704,45286,524287,0
1705,45268,524287,0
1706,45267,524287,0
1707,45254,524287,0
1708,45261,524287,0
1709,45251,524287,0
1710,45268,524287,0
1711,45278,524287,0
1712,45314,524287,0
1713,45328,524287,0
1714,45359,524287,0
1715,45387,524287,0
1716,45425,524287,0
1717,45463,524287,0
1718,45503,524287,0
1719,45542,524287,0
1720,45587,524287,0
1721,45625,524287,0
1722,45667,524287,0
1723,45701,524287,0
1724,45739,524287,0
1725,45773,524287,0
1726,45817,524287,0
1727,45841,524287,0
1728,45868,524287,0
1729,45888,524287,0
1730,45920,524287,0
1731,45930,524287,0
1732,45952,524287,0
1733,45961,524287,0
1734,45981,524287,0
1735,45995,524287,0
1736,46013,524287,0
1737,46023,524287,0
1738,46048,524287,0
1739,46067,524287,0
1740,46084,524287,0
1741,46103,524287,0
1742,46131,524287,0
1743,46154,524287,0
1744,46180,524287,0
1745,46206,524287,0
1746,46234,524287,0
1747,46264,524287,0
1748,46294,524287,0
1749,46333,524287,0
1750,46359,524287,0
1751,46393,524287,0
1752,46428,524287,0
1753,46456,524287,0
1754,46485,524287,0
1755,46501,524287,0
1756,46487,524287,0
1757,46447,524287,0
1758,46342,524287,0
1759,46194,524287,0
1760,45991,524287,0
1761,45792,524287,0
1762,45575,524287,0
1763,45392,524287,0
1764,45226,524287,0
1765,45103,524287,0
1766,45001,524287,0
1767,44947,524287,0
1768,44907,524287,0
1769,44895,524287,0
1770,44887,524287,0
1771,44910,524287,0
1772,44923,524287,0
1773,44956,524287,0
1774,44973,524287,0
1775,45003,524287,0
1776,45012,524287,0
1777,45036,524287,0
1778,45040,524287,0
1779,45054,524287,0
1780,45058,524287,0
1781,45088,524287,0
1782,45097,524287,0
1783,45129,524287,0
1784,45137,524287,0
1785,45163,524287,0
1786,45159,524287,0
1787,45169,524287,0
1788,45158,524287,0
1789,45158,524287,0
1790,45146,524287,0
1791,45146,524287,0
1792,45129,524287,0
1793,45132,524287,0
1794,45112,524287,0
1795,45131,524287,0
1796,45134,524287,0
1797,45165,524287,0
1798,45175,524287,0
1799,45215,524287,0
1800,45238,524287,0
1801,45295,524287,0
1802,45322,524287,0
1803,45378,524287,0
1804,45413,524287,0
1805,45478,524287,0
1806,45510,524287,0
1807,45582,524287,0
1808,45619,524287,0
1809,45683,524287,0
1810,45719,524287,0
1811,45778,524287,0
1812,45813,524287,0
1813,45874,524287,0
1814,45900,524287,0
1815,45953,524287,0
1816,45980,524287,0
1817,46033,524287,0
1818,46057,524287,0
1819,46104,524287,0
1820,46122,524287,0
1821,46162,524287,0
1822,46167,524287,0
1823,46204,524287,0
1824,46207,524287,0
1825,46242,524287,0
1826,46253,524287,0
1827,46291,524287,0
1828,46299,524287,0
1829,46336,524287,0
1830,46355,524287,0
1831,46400,524287,0
1832,46417,524287,0
1833,46469,524287,0
1834,46492,524287,0
1835,46540,524287,0
1836,46566,524287,0
1837,46630,524287,0
1838,46663,524287,0
1839,46711,524287,0
1840,46741,524287,0
1841,46795,524287,0
1842,46816,524287,0
1843,46849,524287,0
1844,46840,524287,0
1845,46806,524287,0
1846,46691,524287,0
1847,46544,524287,0
1848,46326,524287,0
1849,46112,524287,0
1850,45871,524287,0
1851,45682,524287,0
1852,45502,524287,0
1853,45382,524287,0
1854,45272,524287,0
1855,45214,524287,0
1856,45154,524287,0
1857,45155,524287,0
1858,45152,524287,0
1859,45195,524287,0
1860,45221,524287,0
1861,45274,524287,0
1862,45305,524287,0
1863,45353,524287,0
1864,45372,524287,0
1865,45409,524287,0
1866,45416,524287,0
1867,45443,524287,0
1868,45455,524287,0
1869,45487,524287,0
1870,45494,524287,0
1871,45534,524287,0
1872,45535,524287,0
1873,45569,524287,0
1874,45563,524287,0
1875,45580,524287,0
1876,45559,524287,0
1877,45548,524287,0
1878,45509,524287,0
1879,45501,524287,0
1880,45466,524287,0
1881,45458,524287,0
1882,45436,524287,0
1883,45443,524287,0
1884,45439,524287,0
1885,45468,524287,0
1886,45479,524287,0
1887,45513,524287,0
1888,45529,524287,0
1889,45569,524287,0
1890,45598,524287,0
1891,45642,524287,0
1892,45677,524287,0
1893,45717,524287,0
1894,45747,524287,0
1895,45785,524287,0
1896,45812,524287,0
1897,45845,524287,0
1898,45868,524287,0
1899,45900,524287,0
1900,45909,524287,0
1901,45923,524287,0
1902,45947,524287,0
1903,45986,524287,0
1904,46028,524287,0
1905,46066,524287,0
1906,46097,524287,0
1907,46126,524287,0
1908,46138,524287,0
1909,46153,524287,0
1910,46159,524287,0
1911,46169,524287,0
1912,46175,524287,0
1913,46187,524287,0
1914,46207,524287,0
1915,46227,524287,0
1916,46248,524287,0
1917,46275,524287,0
1918,46300,524287,0
1919,46327,524287,0
1920,46360,524287,0
1921,46387,524287,0
1922,46418,524287,0
1923,46441,524287,0
1924,46445,524287,0
1925,46407,524287,0
1926,46332,524287,0
1927,46200,524287,0
1928,46042,524287,0
1929,45849,524287,0
1930,45661,524287,0
1931,45476,524287,0
1932,45326,524287,0
1933,45195,524287,0
1934,45114,524287,0
1935,45048,524287,0
1936,45022,524287,0
1937,44997,524287,0
1938,45006,524287,0
1939,45016,524287,0
1940,45052,524287,0
1941,45065,524287,0
1942,45110,524287,0
1943,45133,524287,0
1944,45172,524287,0
1945,45186,524287,0
1946,45224,524287,0
1947,45241,524287,0
1948,45286,524287,0
1949,45306,524287,0
1950,45339,524287,0
1951,45352,524287,0
1952,45378,524287,0
1953,45364,524287,0
1954,45375,524287,0
1955,45339,524287,0
1956,45337,524287,0
1957,45301,524287,0
1958,45293,524287,0
1959,45261,524287,0
1960,45254,524287,0
1961,45234,524287,0
1962,45239,524287,0
1963,45236,524287,0
1964,45263,524287,0
1965,45272,524287,0
1966,45312,524287,0
1967,45332,524287,0
1968,45381,524287,0
1969,45407,524287,0
1970,45472,524287,0
1971,45501,524287,0
1972,45556,524287,0
1973,45582,524287,0
1974,45641,524287,0
1975,45665,524287,0
1976,45718,524287,0
1977,45733,524287,0
1978,45772,524287,0
1979,45795,524287,0
1980,45838,524287,0
1981,45853,524287,0
1982,45893,524287,0
1983,45901,524287,0
1984,45930,524287,0
1985,45937,524287,0
1986,45967,524287,0
1987,45970,524287,0
1988,45997,524287,0
1989,45996,524287,0
1990,46020,524287,0
1991,46026,524287,0
1992,46058,524287,0
1993,46067,524287,0
1994,46099,524287,0
1995,46107,524287,0
1996,46146,524287,0
1997,46159,524287,0
1998,46204,524287,0
1999,46218,524287,0
2000,46258,524287,0
2001,46267,524287,0
2002,46304,524287,0
2003,46305,524287,0
2004,46302,524287,0
2005,46234,524287,0
2006,46132,524287,0
2007,45961,524287,0
2008,45778,524287,0
2009,45562,524287,0
2010,45366,524287,0
2011,45173,524287,0
2012,45028,524287,0
2013,44889,524287,0
2014,44801,524287,0
2015,44720,524287,0
2016,44680,524287,0
2017,44642,524287,0
2018,44643,524287,0
2019,44642,524287,0
2020,44671,524287,0
2021,44689,524287,0
2022,44730,524287,0
2023,44746,524287,0
2024,44778,524287,0
2025,44775,524287,0
2026,44777,524287,0
2027,44767,524287,0
2028,44789,524287,0
2029,44799,524287,0
2030,44824,524287,0
2031,44831,524287,0
2032,44858,524287,0
2033,44871,524287,0
2034,44894,524287,0
2035,44898,524287,0
2036,44905,524287,0
2037,44899,524287,0
2038,44900,524287,0
2039,44891,524287,0
2040,44881,524287,0
2041,44876,524287,0
2042,44874,524287,0
2043,44883,524287,0
2044,44896,524287,0
2045,44911,524287,0
2046,44939,524287,0
2047,44974,524287,0
2048,45002,524287,0
2049,45037,524287,0
2050,45067,524287,0
2051,45110,524287,0
2052,45142,524287,0
2053,45189,524287,0
2054,45229,524287,0
2055,45273,524287,0
2056,45304,524287,0
2057,45352,524287,0
2058,45379,524287,0
2059,45416,524287,0
2060,45433,524287,0
2061,45471,524287,0
2062,45490,524287,0
2063,45520,524287,0
2064,45531,524287,0
2065,45556,524287,0
2066,45562,524287,0
2067,45588,524287,0
2068,45593,524287,0
2069,45620,524287,0
2070,45624,524287,0
2071,45648,524287,0
2072,45655,524287,0
2073,45682,524287,0
2074,45696,524287,0
2075,45730,524287,0
2076,45734,524287,0
2077,45770,524287,0
2078,45786,524287,0
2079,45822,524287,0
2080,45842,524287,0
2081,45873,524287,0
2082,45886,524287,0
2083,45919,524287,0
2084,45941,524287,0
2085,45984,524287,0
2086,46005,524287,0
2087,46041,524287,0
2088,46065,524287,0
2089,46092,524287,0
2090,46119,524287,0
2091,46142,524287,0
2092,46145,524287,0
2093,46130,524287,0
2094,46062,524287,0
2095,45957,524287,0
2096,45779,524287,0
2097,45587,524287,0
2098,45367,524287,0
2099,45166,524287,0
2100,44975,524287,0
2101,44830,524287,0
2102,44708,524287,0
2103,44626,524287,0
2104,44568,524287,0
2105,44541,524287,0
2106,44527,524287,0
2107,44533,524287,0
2108,44550,524287,0
2109,44569,524287,0
2110,44594,524287,0
2111,44613,524287,0
2112,44636,524287,0
2113,44649,524287,0
2114,44652,524287,0
2115,44650,524287,0
2116,44658,524287,0
2117,44661,524287,0
2118,44678,524287,0
2119,44687,524287,0
2120,44719,524287,0
2121,44732,524287,0
2122,44761,524287,0
2123,44760,524287,0
2124,44773,524287,0
2125,44761,524287,0
2126,44773,524287,0
2127,44752,524287,0
2128,44762,524287,0
2129,44742,524287,0
2130,44753,524287,0
2131,44738,524287,0
2132,44765,524287,0
2133,44763,524287,0
2134,44799,524287,0
2135,44806,524287,0
2136,44852,524287,0
2137,44862,524287,0
2138,44922,524287,0
2139,44934,524287,0
2140,44998,524287,0
2141,45008,524287,0
2142,45075,524287,0
2143,45083,524287,0
2144,45145,524287,0
2145,45158,524287,0
2146,45216,524287,0
2147,45222,524287,0
2148,45282,524287,0
2149,45282,524287,0
2150,45332,524287,0
2151,45328,524287,0
2152,45381,524287,0
2153,45374,524287,0
2154,45421,524287,0
2155,45408,524287,0
2156,45456,524287,0
2157,45441,524287,0
2158,45490,524287,0
2159,45479,524287,0
2160,45523,524287,0
2161,45519,524287,0
2162,45569,524287,0
2163,45562,524287,0
2164,45612,524287,0
2165,45609,524287,0
2166,45655,524287,0
2167,45658,524287,0
2168,45708,524287,0
2169,45710,524287,0
2170,45764,524287,0
2171,45760,524287,0
2172,45811,524287,0
2173,45816,524287,0
2174,45867,524287,0
2175,45882,524287,0
2176,45935,524287,0
2177,45949,524287,0
2178,45995,524287,0
2179,46008,524287,0
2180,46059,524287,0
2181,46073,524287,0
2182,46115,524287,0
2183,46105,524287,0
2184,46105,524287,0
2185,46033,524287,0
2186,45930,524287,0
2187,45754,524287,0
2188,45564,524287,0
2189,45349,524287,0
2190,45158,524287,0
2191,44974,524287,0
2192,44832,524287,0
2193,44717,524287,0
2194,44641,524287,0
2195,44589,524287,0
2196,44574,524287,0
2197,44563,524287,0
2198,44582,524287,0
2199,44604,524287,0
2200,44635,524287,0
2201,44662,524287,0
2202,44698,524287,0
2203,44723,524287,0
2204,44740,524287,0
2205,44752,524287,0
2206,44757,524287,0
2207,44772,524287,0
2208,44779,524287,0
2209,44805,524287,0
2210,44819,524287,0
2211,44845,524287,0
2212,44851,524287,0
2213,44876,524287,0
2214,44874,524287,0
2215,44882,524287,0
2216,44869,524287,0
2217,44875,524287,0
2218,44853,524287,0
2219,44855,524287,0
2220,44840,524287,0
2221,44846,524287,0
2222,44843,524287,0
2223,44861,524287,0
2224,44859,524287,0
2225,44894,524287,0
2226,44913,524287,0
2227,44950,524287,0
2228,44974,524287,0
2229,45024,524287,0
2230,45052,524287,0
2231,45099,524287,0
2232,45137,524287,0
2233,45187,524287,0
2234,45225,524287,0
2235,45274,524287,0
2236,45304,524287,0
2237,45350,524287,0
2238,45373,524287,0
2239,45405,524287,0
2240,45434,524287,0
2241,45463,524287,0
2242,45488,524287,0
2243,45515,524287,0
2244,45534,524287,0
2245,45557,524287,0
2246,45573,524287,0
2247,45596,524287,0
2248,45611,524287,0
2249,45628,524287,0
2250,45645,524287,0
2251,45667,524287,0
2252,45681,524287,0
2253,45700,524287,0
2254,45723,524287,0
2255,45744,524287,0
2256,45766,524287,0
2257,45793,524287,0
2258,45819,524287,0
2259,45838,524287,0
2260,45863,524287,0
2261,45890,524287,0
2262,45921,524287,0
2263,45947,524287,0
2264,45986,524287,0
2265,46008,524287,0
2266,46048,524287,0
2267,46081,524287,0
2268,46111,524287,0
2269,46141,524287,0
2270,46180,524287,0
2271,46203,524287,0
2272,46237,524287,0
2273,46244,524287,0
2274,46228,524287,0
2275,46147,524287,0
2276,46020,524287,0
2277,45835,524287,0
2278,45640,524287,0
2279,45420,524287,0
2280,45240,524287,0
2281,45066,524287,0
2282,44948,524287,0
2283,44839,524287,0
2284,44788,524287,0
2285,44741,524287,0
2286,44743,524287,0
2287,44740,524287,0
2288,44775,524287,0
2289,44790,524287,0
2290,44844,524287,0
2291,44874,524287,0
2292,44919,524287,0
2293,44940,524287,0
2294,44983,524287,0
2295,44991,524287,0
2296,45025,524287,0
2297,45040,524287,0
2298,45078,524287,0
2299,45096,524287,0
2300,45136,524287,0
2301,45142,524287,0
2302,45163,524287,0
2303,45147,524287,0
2304,45155,524287,0
2305,45126,524287,0
2306,45114,524287,0
2307,45079,524287,0
2308,45066,524287,0
2309,45034,524287,0
2310,45029,524287,0
2311,45010,524287,0
2312,45020,524287,0
2313,45021,524287,0
2314,45046,524287,0
2315,45062,524287,0
2316,45102,524287,0
2317,45123,524287,0
2318,45173,524287,0
2319,45203,524287,0
2320,45251,524287,0
2321,45283,524287,0
2322,45331,524287,0
2323,45361,524287,0
2324,45402,524287,0
2325,45432,524287,0
2326,45471,524287,0
2327,45495,524287,0
2328,45525,524287,0
2329,45541,524287,0
2330,45569,524287,0
2331,45585,524287,0
2332,45605,524287,0
2333,45622,524287,0
2334,45641,524287,0
2335,45656,524287,0
2336,45671,524287,0
2337,45681,524287,0
2338,45692,524287,0
2339,45708,524287,0
2340,45723,524287,0
2341,45740,524287,0
2342,45759,524287,0
2343,45780,524287,0
2344,45801,524287,0
2345,45829,524287,0
2346,45846,524287,0
2347,45874,524287,0
2348,45902,524287,0
2349,45940,524287,0
2350,45968,524287,0
2351,46000,524287,0
2352,46022,524287,0
2353,46044,524287,0
2354,46037,524287,0
2355,45995,524287,0
2356,45894,524287,0
2357,45756,524287,0
2358,45566,524287,0
2359,45378,524287,0
2360,45181,524287,0
2361,45017,524287,0
2362,44865,524287,0
2363,44755,524287,0
2364,44669,524287,0
2365,44610,524287,0
2366,44571,524287,0
2367,44560,524287,0
2368,44548,524287,0
2369,44563,524287,0
2370,44565,524287,0
2371,44587,524287,0
2372,44586,524287,0
2373,44604,524287,0
2374,44598,524287,0
2375,44615,524287,0
2376,44616,524287,0
2377,44630,524287,0
2378,44635,524287,0
2379,44667,524287,0
2380,44689,524287,0
2381,44724,524287,0
2382,44749,524287,0
2383,44787,524287,0
2384,44790,524287,0
2385,44819,524287,0
2386,44815,524287,0
2387,44826,524287,0
2388,44806,524287,0
2389,44808,524287,0
2390,44781,524287,0
2391,44784,524287,0
2392,44761,524287,0
2393,44763,524287,0
2394,44744,524287,0
2395,44756,524287,0
2396,44747,524287,0
2397,44772,524287,0
2398,44783,524287,0
2399,44821,524287,0
2400,44836,524287,0
2401,44879,524287,0
2402,44895,524287,0
2403,44943,524287,0
2404,44954,524287,0
2405,45000,524287,0
2406,45009,524287,0
2407,45056,524287,0
2408,45066,524287,0
2409,45101,524287,0
2410,45105,524287,0
2411,45139,524287,0
2412,45135,524287,0
2413,45167,524287,0
2414,45162,524287,0
2415,45195,524287,0
2416,45200,524287,0
2417,45237,524287,0
2418,45246,524287,0
2419,45294,524287,0
2420,45302,524287,0
2421,45354,524287,0
2422,45372,524287,0
2423,45422,524287,0
2424,45438,524287,0
2425,45498,524287,0
2426,45515,524287,0
2427,45573,524287,0
2428,45593,524287,0
2429,45659,524287,0
2430,45683,524287,0
2431,45749,524287,0
2432,45772,524287,0
2433,45841,524287,0
2434,45861,524287,0
2435,45906,524287,0
2436,45883,524287,0
2437,45855,524287,0
2438,45737,524287,0
2439,45613,524287,0
2440,45421,524287,0
2441,45264,524287,0
2442,45076,524287,0
2443,44947,524287,0
2444,44798,524287,0
2445,44722,524287,0
2446,44623,524287,0
2447,44586,524287,0
2448,44543,524287,0
2449,44548,524287,0
2450,44534,524287,0
2451,44561,524287,0
2452,44566,524287,0
2453,44605,524287,0
2454,44615,524287,0
2455,44654,524287,0
2456,44673,524287,0
2457,44719,524287,0
2458,44747,524287,0
2459,44807,524287,0
2460,44849,524287,0
2461,44922,524287,0
2462,44966,524287,0
2463,45030,524287,0
2464,45065,524287,0
2465,45119,524287,0
2466,45138,524287,0
2467,45161,524287,0
2468,45154,524287,0
2469,45164,524287,0
2470,45148,524287,0
2471,45147,524287,0
2472,45132,524287,0
2473,45131,524287,0
2474,45115,524287,0
2475,45118,524287,0
2476,45118,524287,0
2477,45141,524287,0
2478,45155,524287,0
2479,45184,524287,0
2480,45207,524287,0
2481,45248,524287,0
2482,45278,524287,0
2483,45325,524287,0
2484,45364,524287,0
2485,45409,524287,0
2486,45448,524287,0
2487,45494,524287,0
2488,45531,524287,0
2489,45571,524287,0
2490,45610,524287,0
2491,45650,524287,0
2492,45686,524287,0
2493,45721,524287,0
2494,45752,524287,0
2495,45779,524287,0
2496,45800,524287,0
2497,45821,524287,0
2498,45832,524287,0
2499,45846,524287,0
2500,45852,524287,0
2501,45864,524287,0
2502,45873,524287,0
2503,45883,524287,0
2504,45901,524287,0
2505,45912,524287,0
2506,45934,524287,0
2507,45956,524287,0
2508,45984,524287,0
2509,46014,524287,0
2510,46042,524287,0
2511,46075,524287,0
2512,46105,524287,0
2513,46125,524287,0
2514,46132,524287,0
2515,46094,524287,0
2516,46004,524287,0
2517,45857,524287,0
2518,45672,524287,0
2519,45469,524287,0
2520,45284,524287,0
2521,45100,524287,0
2522,44956,524287,0
2523,44830,524287,0
2524,44755,524287,0
2525,44695,524287,0
2526,44684,524287,0
2527,44667,524287,0
2528,44691,524287,0
2529,44704,524287,0
2530,44744,524287,0
2531,44771,524287,0
2532,44816,524287,0
2533,44839,524287,0
2534,44878,524287,0
2535,44889,524287,0
2536,44921,524287,0
2537,44930,524287,0
2538,44975,524287,0
2539,44990,524287,0
2540,45036,524287,0
2541,45047,524287,0
2542,45082,524287,0
2543,45085,524287,0
2544,45103,524287,0
2545,45085,524287,0
2546,45085,524287,0
2547,45054,524287,0
2548,45053,524287,0
2549,45012,524287,0
2550,45005,524287,0
2551,44974,524287,0
2552,44985,524287,0
2553,44967,524287,0
2554,44996,524287,0
2555,44998,524287,0
2556,45041,524287,0
2557,45061,524287,0
2558,45110,524287,0
2559,45143,524287,0
2560,45197,524287,0
2561,45231,524287,0
2562,45296,524287,0
2563,45324,524287,0
2564,45392,524287,0
2565,45416,524287,0
2566,45473,524287,0
2567,45496,524287,0
2568,45548,524287,0
2569,45564,524287,0
2570,45609,524287,0
2571,45622,524287,0
2572,45662,524287,0
2573,45666,524287,0
2574,45703,524287,0
2575,45707,524287,0
2576,45748,524287,0
2577,45761,524287,0
2578,45801,524287,0
2579,45815,524287,0
2580,45859,524287,0
2581,45870,524287,0
2582,45899,524287,0
2583,45901,524287,0
2584,45893,524287,0
2585,45827,524287,0
2586,45733,524287,0
2587,45563,524287,0
2588,45393,524287,0
2589,45195,524287,0
2590,45021,524287,0
2591,44856,524287,0
2592,44733,524287,0
2593,44623,524287,0
2594,44559,524287,0
2595,44508,524287,0
2596,44496,524287,0
2597,44494,524287,0
2598,44511,524287,0
2599,44526,524287,0
2600,44552,524287,0
2601,44572,524287,0
2602,44595,524287,0
2603,44610,524287,0
2604,44619,524287,0
2605,44618,524287,0
2606,44623,524287,0
2607,44624,524287,0
2608,44637,524287,0
2609,44651,524287,0
2610,44675,524287,0
2611,44709,524287,0
2612,44740,524287,0
2613,44766,524287,0
2614,44785,524287,0
2615,44813,524287,0
2616,44824,524287,0
2617,44840,524287,0
2618,44842,524287,0
2619,44854,524287,0
2620,44847,524287,0
2621,44857,524287,0
2622,44853,524287,0
2623,44874,524287,0
2624,44881,524287,0
2625,44914,524287,0
2626,44928,524287,0
2627,44971,524287,0
2628,45001,524287,0
2629,45049,524287,0
2630,45084,524287,0
2631,45140,524287,0
2632,45172,524287,0
2633,45227,524287,0
2634,45264,524287,0
2635,45319,524287,0
2636,45356,524287,0
2637,45409,524287,0
2638,45436,524287,0
2639,45483,524287,0
2640,45509,524287,0
2641,45552,524287,0
2642,45571,524287,0
2643,45611,524287,0
2644,45621,524287,0
2645,45654,524287,0
2646,45660,524287,0
2647,45698,524287,0
2648,45708,524287,0
2649,45738,524287,0
2650,45756,524287,0
2651,45797,524287,0
2652,45814,524287,0
2653,45853,524287,0
2654,45874,524287,0
2655,45911,524287,0
2656,45935,524287,0
2657,45967,524287,0
2658,45971,524287,0
2659,45961,524287,0
2660,45895,524287,0
2661,45779,524287,0
2662,45611,524287,0
2663,45414,524287,0
2664,45196,524287,0
2665,44989,524287,0
2666,44816,524287,0
2667,44664,524287,0
2668,44557,524287,0
2669,44478,524287,0
2670,44431,524287,0
2671,44409,524287,0
2672,44399,524287,0
2673,44404,524287,0
2674,44417,524287,0
2675,44433,524287,0
2676,44448,524287,0
2677,44461,524287,0
2678,44472,524287,0
2679,44462,524287,0
2680,44470,524287,0
2681,44460,524287,0
2682,44461,524287,0
2683,44460,524287,0
2684,44478,524287,0
2685,44495,524287,0
2686,44535,524287,0
2687,44559,524287,0
2688,44607,524287,0
2689,44627,524287,0
2690,44671,524287,0
2691,44683,524287,0
2692,44710,524287,0
2693,44709,524287,0
2694,44727,524287,0
2695,44718,524287,0
2696,44734,524287,0
2697,44723,524287,0
2698,44747,524287,0
2699,44741,524287,0
2700,44775,524287,0
2701,44775,524287,0
2702,44821,524287,0
2703,44834,524287,0
2704,44888,524287,0
2705,44902,524287,0
2706,44968,524287,0
2707,44981,524287,0
2708,45049,524287,0
2709,45071,524287,0
2710,45131,524287,0
2711,45152,524287,0
2712,45217,524287,0
2713,45229,524287,0
2714,45293,524287,0
2715,45308,524287,0
2716,45364,524287,0
2717,45369,524287,0
2718,45425,524287,0
2719,45431,524287,0
2720,45483,524287,0
2721,45478,524287,0
2722,45523,524287,0
2723,45519,524287,0
2724,45561,524287,0
2725,45560,524287,0
2726,45611,524287,0
2727,45612,524287,0
2728,45670,524287,0
2729,45688,524287,0
2730,45755,524287,0
2731,45766,524287,0
2732,45832,524287,0
2733,45843,524287,0
2734,45904,524287,0
2735,45903,524287,0
2736,45933,524287,0
2737,45894,524287,0
2738,45863,524287,0
2739,45744,524287,0
2740,45617,524287,0
2741,45409,524287,0
2742,45231,524287,0
2743,45011,524287,0
2744,44853,524287,0
2745,44690,524287,0
2746,44590,524287,0
2747,44486,524287,0
2748,44449,524287,0
2749,44402,524287,0
2750,44403,524287,0
2751,44392,524287,0
2752,44418,524287,0
2753,44419,524287,0
2754,44444,524287,0
2755,44440,524287,0
2756,44464,524287,0
2757,44462,524287,0
2758,44479,524287,0
2759,44480,524287,0
2760,44494,524287,0
2761,44492,524287,0
2762,44515,524287,0
2763,44532,524287,0
2764,44568,524287,0
2765,44593,524287,0
2766,44621,524287,0
2767,44641,524287,0
2768,44670,524287,0
2769,44684,524287,0
2770,44698,524287,0
2771,44704,524287,0
2772,44713,524287,0
2773,44716,524287,0
2774,44720,524287,0
2775,44720,524287,0
2776,44727,524287,0
2777,44741,524287,0
2778,44747,524287,0
2779,44759,524287,0
2780,44780,524287,0
2781,44808,524287,0
2782,44844,524287,0
2783,44885,524287,0
2784,44927,524287,0
2785,44978,524287,0
2786,45022,524287,0
2787,45063,524287,0
2788,45106,524287,0
2789,45146,524287,0
2790,45173,524287,0
2791,45204,524287,0
2792,45229,524287,0
2793,45260,524287,0
2794,45281,524287,0
2795,45310,524287,0
2796,45336,524287,0
2797,45364,524287,0
2798,45396,524287,0
2799,45431,524287,0
2800,45459,524287,0
2801,45484,524287,0
2802,45499,524287,0
2803,45521,524287,0
2804,45539,524287,0
2805,45556,524287,0
2806,45562,524287,0
2807,45577,524287,0
2808,45585,524287,0
2809,45604,524287,0
2810,45628,524287,0
2811,45657,524287,0
2812,45680,524287,0
2813,45698,524287,0
2814,45698,524287,0
2815,45662,524287,0
2816,45562,524287,0
2817,45413,524287,0
2818,45229,524287,0
2819,45026,524287,0
2820,44829,524287,0
2821,44639,524287,0
2822,44478,524287,0
2823,44353,524287,0
2824,44257,524287,0
2825,44194,524287,0
2826,44163,524287,0
2827,44155,524287,0
2828,44167,524287,0
2829,44187,524287,0
2830,44213,524287,0
2831,44237,524287,0
2832,44273,524287,0
2833,44302,524287,0
2834,44329,524287,0
2835,44356,524287,0
2836,44381,524287,0
2837,44413,524287,0
2838,44450,524287,0
2839,44489,524287,0
2840,44541,524287,0
2841,44579,524287,0
2842,44628,524287,0
2843,44658,524287,0
2844,44693,524287,0
2845,44708,524287,0
2846,44719,524287,0
2847,44715,524287,0
2848,44712,524287,0
2849,44696,524287,0
2850,44691,524287,0
2851,44675,524287,0
2852,44676,524287,0
2853,44670,524287,0
2854,44679,524287,0
2855,44673,524287,0
2856,44693,524287,0
2857,44707,524287,0
2858,44742,524287,0
2859,44765,524287,0
2860,44811,524287,0
2861,44852,524287,0
2862,44914,524287,0
2863,44955,524287,0
2864,45011,524287,0
2865,45054,524287,0
2866,45121,524287,0
2867,45153,524287,0
2868,45210,524287,0
2869,45244,524287,0
2870,45299,524287,0
2871,45332,524287,0
2872,45384,524287,0
2873,45407,524287,0
2874,45446,524287,0
2875,45470,524287,0
2876,45515,524287,0
2877,45532,524287,0
2878,45569,524287,0
2879,45591,524287,0
2880,45627,524287,0
2881,45639,524287,0
2882,45675,524287,0
2883,45683,524287,0
2884,45702,524287,0
2885,45687,524287,0
2886,45635,524287,0
2887,45524,524287,0
2888,45376,524287,0
2889,45168,524287,0
2890,44958,524287,0
2891,44741,524287,0
2892,44551,524287,0
2893,44378,524287,0
2894,44251,524287,0
2895,44146,524287,0
2896,44080,524287,0
2897,44030,524287,0
2898,44016,524287,0
2899,44010,524287,0
2900,44019,524287,0
2901,44027,524287,0
2902,44050,524287,0
2903,44064,524287,0
2904,44084,524287,0
2905,44095,524287,0
2906,44106,524287,0
2907,44119,524287,0
2908,44133,524287,0
2909,44147,524287,0
2910,44174,524287,0
2911,44210,524287,0
2912,44243,524287,0
2913,44288,524287,0
2914,44324,524287,0
2915,44364,524287,0
2916,44391,524287,0
2917,44420,524287,0
2918,44435,524287,0
2919,44455,524287,0
2920,44463,524287,0
2921,44471,524287,0
2922,44474,524287,0
2923,44499,524287,0
2924,44518,524287,0
2925,44557,524287,0
2926,44578,524287,0
2927,44621,524287,0
2928,44665,524287,0
2929,44721,524287,0
2930,44771,524287,0
2931,44829,524287,0
2932,44882,524287,0
2933,44940,524287,0
2934,44986,524287,0
2935,45047,524287,0
2936,45100,524287,0
2937,45156,524287,0
2938,45204,524287,0
2939,45251,524287,0
2940,45285,524287,0
2941,45331,524287,0
2942,45363,524287,0
2943,45408,524287,0
2944,45433,524287,0
2945,45472,524287,0
2946,45498,524287,0
2947,45542,524287,0
2948,45571,524287,0
2949,45615,524287,0
2950,45642,524287,0
2951,45678,524287,0
2952,45698,524287,0
2953,45741,524287,0
2954,45759,524287,0
2955,45804,524287,0
2956,45829,524287,0
2957,45881,524287,0
2958,45907,524287,0
2959,45956,524287,0
2960,45978,524287,0
2961,46018,524287,0
2962,46014,524287,0
2963,45993,524287,0
2964,45895,524287,0
2965,45769,524287,0
2966,45578,524287,0
2967,45394,524287,0
2968,45169,524287,0
2969,44989,524287,0
2970,44804,524287,0
2971,44681,524287,0
2972,44567,524287,0
2973,44511,524287,0
2974,44465,524287,0
2975,44463,524287,0
2976,44454,524287,0
2977,44486,524287,0
2978,44498,524287,0
2979,44538,524287,0
2980,44548,524287,0
2981,44582,524287,0
2982,44586,524287,0
2983,44613,524287,0
2984,44600,524287,0
2985,44627,524287,0
2986,44627,524287,0
2987,44667,524287,0
2988,44676,524287,0
2989,44726,524287,0
2990,44740,524287,0
2991,44776,524287,0
2992,44790,524287,0
2993,44817,524287,0
2994,44823,524287,0
2995,44843,524287,0
2996,44837,524287,0
2997,44846,524287,0
2998,44836,524287,0
2999,44839,524287,0
3000,44823,524287,0
3001,44830,524287,0
3002,44831,524287,0
3003,44850,524287,0
3004,44860,524287,0
3005,44892,524287,0
3006,44912,524287,0
3007,44959,524287,0
3008,44995,524287,0
3009,45035,524287,0
3010,45054,524287,0
3011,45091,524287,0
3012,45116,524287,0
3013,45148,524287,0
3014,45167,524287,0
3015,45198,524287,0
3016,45224,524287,0
3017,45263,524287,0
3018,45293,524287,0
3019,45335,524287,0
3020,45368,524287,0
3021,45412,524287,0
3022,45448,524287,0
3023,45487,524287,0
3024,45516,524287,0
3025,45557,524287,0
3026,45595,524287,0
3027,45634,524287,0
3028,45670,524287,0
3029,45714,524287,0
3030,45748,524287,0
3031,45791,524287,0
3032,45831,524287,0
3033,45875,524287,0
3034,45910,524287,0
3035,45956,524287,0
3036,45985,524287,0
3037,46021,524287,0
3038,46055,524287,0
3039,46090,524287,0
3040,46113,524287,0
3041,46135,524287,0
3042,46130,524287,0
3043,46086,524287,0
3044,45976,524287,0
3045,45825,524287,0
3046,45632,524287,0
3047,45427,524287,0
3048,45210,524287,0
3049,45015,524287,0
3050,44847,524287,0
3051,44716,524287,0
3052,44614,524287,0
3053,44549,524287,0
3054,44514,524287,0
3055,44515,524287,0
3056,44519,524287,0
3057,44548,524287,0
3058,44574,524287,0
3059,44617,524287,0
3060,44649,524287,0
3061,44690,524287,0
3062,44720,524287,0
3063,44744,524287,0
3064,44758,524287,0
3065,44777,524287,0
3066,44793,524287,0
3067,44813,524287,0
3068,44840,524287,0
3069,44870,524287,0
3070,44901,524287,0
3071,44923,524287,0
3072,44940,524287,0
3073,44960,524287,0
3074,44969,524287,0
3075,44977,524287,0
3076,44982,524287,0
3077,44985,524287,0
3078,44986,524287,0
3079,44989,524287,0
3080,44994,524287,0
3081,44999,524287,0
3082,45006,524287,0
3083,45019,524287,0
3084,45041,524287,0
3085,45066,524287,0
3086,45102,524287,0
3087,45135,524287,0
3088,45178,524287,0
3089,45220,524287,0
3090,45266,524287,0
3091,45308,524287,0
3092,45356,524287,0
3093,45407,524287,0
3094,45454,524287,0
3095,45489,524287,0
3096,45531,524287,0
3097,45563,524287,0
3098,45605,524287,0
3099,45627,524287,0
3100,45659,524287,0
3101,45682,524287,0
3102,45713,524287,0
3103,45739,524287,0
3104,45771,524287,0
3105,45792,524287,0
3106,45817,524287,0
3107,45826,524287,0
3108,45852,524287,0
3109,45863,524287,0
3110,45885,524287,0
3111,45902,524287,0
3112,45929,524287,0
3113,45950,524287,0
3114,45984,524287,0
3115,45990,524287,0
3116,45992,524287,0
3117,45936,524287,0
3118,45855,524287,0
3119,45707,524287,0
3120,45543,524287,0
3121,45346,524287,0
3122,45181,524287,0
3123,45014,524287,0
3124,44896,524287,0
3125,44782,524287,0
3126,44726,524287,0
3127,44681,524287,0
3128,44683,524287,0
3129,44682,524287,0
3130,44715,524287,0
3131,44736,524287,0
3132,44791,524287,0
3133,44812,524287,0
3134,44870,524287,0
3135,44891,524287,0
3136,44937,524287,0
3137,44949,524287,0
3138,44985,524287,0
3139,45007,524287,0
3140,45049,524287,0
3141,45080,524287,0
3142,45131,524287,0
3143,45153,524287,0
3144,45187,524287,0
3145,45196,524287,0
3146,45220,524287,0
3147,45219,524287,0
3148,45228,524287,0
3149,45212,524287,0
3150,45215,524287,0
3151,45197,524287,0
3152,45203,524287,0
3153,45187,524287,0
3154,45200,524287,0
3155,45200,524287,0
3156,45224,524287,0
3157,45239,524287,0
3158,45274,524287,0
3159,45303,524287,0
3160,45347,524287,0
3161,45386,524287,0
3162,45433,524287,0
3163,45478,524287,0
3164,45522,524287,0
3165,45566,524287,0
3166,45614,524287,0
3167,45655,524287,0
3168,45698,524287,0
3169,45733,524287,0
3170,45771,524287,0
3171,45808,524287,0
3172,45833,524287,0
3173,45864,524287,0
3174,45896,524287,0
3175,45919,524287,0
3176,45942,524287,0
3177,45961,524287,0
3178,45984,524287,0
3179,46017,524287,0
3180,46037,524287,0
3181,46063,524287,0
3182,46089,524287,0
3183,46124,524287,0
3184,46146,524287,0
3185,46182,524287,0
3186,46203,524287,0
3187,46223,524287,0
3188,46217,524287,0
3189,46171,524287,0
3190,46069,524287,0
3191,45916,524287,0
3192,45708,524287,0
3193,45493,524287,0
3194,45267,524287,0
3195,45065,524287,0
3196,44877,524287,0
3197,44728,524287,0
3198,44618,524287,0
3199,44555,524287,0
3200,44515,524287,0
3201,44505,524287,0
3202,44500,524287,0
3203,44521,524287,0
3204,44546,524287,0
3205,44586,524287,0
3206,44626,524287,0
3207,44664,524287,0
3208,44692,524287,0
3209,44712,524287,0
3210,44730,524287,0
3211,44743,524287,0
3212,44767,524287,0
3213,44791,524287,0
3214,44818,524287,0
3215,44851,524287,0
3216,44877,524287,0
3217,44894,524287,0
3218,44922,524287,0
3219,44933,524287,0
3220,44960,524287,0
3221,44972,524287,0
3222,44995,524287,0
3223,44998,524287,0
3224,44997,524287,0
3225,44979,524287,0
3226,44979,524287,0
3227,44968,524287,0
3228,44988,524287,0
3229,44987,524287,0
3230,45016,524287,0
3231,45034,524287,0
3232,45082,524287,0
3233,45105,524287,0
3234,45158,524287,0
3235,45187,524287,0
3236,45249,524287,0
3237,45284,524287,0
3238,45343,524287,0
3239,45372,524287,0
3240,45436,524287,0
3241,45458,524287,0
3242,45516,524287,0
3243,45532,524287,0
3244,45593,524287,0
3245,45607,524287,0
3246,45665,524287,0
3247,45676,524287,0
3248,45733,524287,0
3249,45743,524287,0
3250,45803,524287,0
3251,45814,524287,0
3252,45874,524287,0
3253,45886,524287,0
3254,45944,524287,0
3255,45954,524287,0
3256,46011,524287,0
3257,46024,524287,0
3258,46089,524287,0
3259,46102,524287,0
3260,46166,524287,0
3261,46173,524287,0
3262,46228,524287,0
3263,46226,524287,0
3264,46238,524287,0
3265,46158,524287,0
3266,46066,524287,0
3267,45872,524287,0
3268,45689,524287,0
3269,45443,524287,0
3270,45252,524287,0
3271,45041,524287,0
3272,44918,524287,0
3273,44785,524287,0
3274,44728,524287,0
3275,44663,524287,0
3276,44666,524287,0
3277,44649,524287,0
3278,44694,524287,0
3279,44703,524287,0
3280,44763,524287,0
3281,44787,524287,0
3282,44844,524287,0
3283,44862,524287,0
3284,44911,524287,0
3285,44929,524287,0
3286,44968,524287,0
3287,44983,524287,0
3288,45026,524287,0
3289,45036,524287,0
3290,45082,524287,0
3291,45103,524287,0
3292,45143,524287,0
3293,45159,524287,0
3294,45189,524287,0
3295,45194,524287,0
3296,45210,524287,0
3297,45201,524287,0
3298,45212,524287,0
3299,45198,524287,0
3300,45198,524287,0
3301,45192,524287,0
3302,45201,524287,0
3303,45204,524287,0
3304,45231,524287,0
3305,45249,524287,0
3306,45289,524287,0
3307,45319,524287,0
3308,45366,524287,0
3309,45410,524287,0
3310,45458,524287,0
3311,45511,524287,0
3312,45555,524287,0
3313,45609,524287,0
3314,45659,524287,0
3315,45709,524287,0
3316,45764,524287,0
3317,45813,524287,0
3318,45868,524287,0
3319,45918,524287,0
3320,45967,524287,0
3321,46019,524287,0
3322,46060,524287,0
3323,46099,524287,0
3324,46144,524287,0
3325,46192,524287,0
3326,46221,524287,0
3327,46260,524287,0
3328,46293,524287,0
3329,46332,524287,0
3330,46357,524287,0
3331,46395,524287,0
3332,46419,524287,0
3333,46464,524287,0
3334,46485,524287,0
3335,46517,524287,0
3336,46551,524287,0
3337,46589,524287,0
3338,46619,524287,0
3339,46651,524287,0
3340,46667,524287,0
3341,46671,524287,0
3342,46622,524287,0
3343,46529,524287,0
3344,46371,524287,0
3345,46167,524287,0
3346,45932,524287,0
3347,45707,524287,0
3348,45485,524287,0
3349,45310,524287,0
3350,45160,524287,0
3351,45056,524287,0
3352,44981,524287,0
3353,44950,524287,0
3354,44935,524287,0
3355,44953,524287,0
3356,44977,524287,0
3357,45013,524287,0
3358,45048,524287,0
3359,45090,524287,0
3360,45128,524287,0
3361,45161,524287,0
3362,45184,524287,0
3363,45217,524287,0
3364,45236,524287,0
3365,45276,524287,0
3366,45297,524287,0
3367,45337,524287,0
3368,45363,524287,0
3369,45399,524287,0
3370,45410,524287,0
3371,45429,524287,0
3372,45420,524287,0
3373,45415,524287,0
3374,45398,524287,0
3375,45377,524287,0
3376,45351,524287,0
3377,45327,524287,0
3378,45312,524287,0
3379,45305,524287,0
3380,45298,524287,0
3381,45310,524287,0
3382,45322,524287,0
3383,45355,524287,0
3384,45385,524287,0
3385,45415,524287,0
3386,45454,524287,0
3387,45503,524287,0
3388,45545,524287,0
3389,45593,524287,0
3390,45633,524287,0
3391,45676,524287,0
3392,45723,524287,0
3393,45762,524287,0
3394,45805,524287,0
3395,45845,524287,0
3396,45883,524287,0
3397,45913,524287,0
3398,45943,524287,0
3399,45974,524287,0
3400,45999,524287,0
3401,46024,524287,0
3402,46052,524287,0
3403,46076,524287,0
3404,46099,524287,0
3405,46118,524287,0
3406,46145,524287,0
3407,46167,524287,0
3408,46190,524287,0
3409,46216,524287,0
3410,46247,524287,0
3411,46255,524287,0
3412,46286,524287,0
3413,46279,524287,0
3414,46249,524287,0
3415,46163,524287,0
3416,46024,524287,0
3417,45831,524287,0
3418,45621,524287,0
3419,45390,524287,0
3420,45193,524287,0
3421,45009,524287,0
3422,44875,524287,0
3423,44762,524287,0
3424,44708,524287,0
3425,44661,524287,0
3426,44660,524287,0
3427,44662,524287,0
3428,44696,524287,0
3429,44718,524287,0
3430,44766,524287,0
3431,44798,524287,0
3432,44842,524287,0
3433,44865,524287,0
3434,44916,524287,0
3435,44938,524287,0
3436,44985,524287,0
3437,45013,524287,0
3438,45063,524287,0
3439,45089,524287,0
3440,45129,524287,0
3441,45136,524287,0
3442,45159,524287,0
3443,45147,524287,0
3444,45144,524287,0
3445,45108,524287,0
3446,45089,524287,0
3447,45045,524287,0
3448,45021,524287,0
3449,44973,524287,0
3450,44960,524287,0
3451,44929,524287,0
3452,44940,524287,0
3453,44927,524287,0
3454,44953,524287,0
3455,44964,524287,0
3456,45009,524287,0
3457,45034,524287,0
3458,45093,524287,0
3459,45121,524287,0
3460,45187,524287,0
3461,45222,524287,0
3462,45303,524287,0
3463,45340,524287,0
3464,45418,524287,0
3465,45453,524287,0
3466,45529,524287,0
3467,45557,524287,0
3468,45626,524287,0
3469,45652,524287,0
3470,45720,524287,0
3471,45740,524287,0
3472,45806,524287,0
3473,45826,524287,0
3474,45884,524287,0
3475,45898,524287,0
3476,45949,524287,0
3477,45960,524287,0
3478,46017,524287,0
3479,46015,524287,0
3480,46063,524287,0
3481,46058,524287,0
3482,46097,524287,0
3483,46068,524287,0
3484,46071,524287,0
3485,45964,524287,0
3486,45850,524287,0
3487,45629,524287,0
3488,45423,524287,0
3489,45148,524287,0
3490,44945,524287,0
3491,44710,524287,0
3492,44576,524287,0
3493,44420,524287,0
3494,44358,524287,0
3495,44278,524287,0
3496,44281,524287,0
3497,44257,524287,0
3498,44292,524287,0
3499,44293,524287,0
3500,44346,524287,0
3501,44354,524287,0
3502,44414,524287,0
3503,44416,524287,0
3504,44468,524287,0
3505,44465,524287,0
3506,44502,524287,0
3507,44501,524287,0
3508,44550,524287,0
3509,44554,524287,0
3510,44606,524287,0
3511,44619,524287,0
3512,44664,524287,0
3513,44665,524287,0
3514,44696,524287,0
3515,44678,524287,0
3516,44695,524287,0
3517,44658,524287,0
3518,44667,524287,0
3519,44624,524287,0
3520,44631,524287,0
3521,44599,524287,0
3522,44621,524287,0
3523,44603,524287,0
3524,44636,524287,0
3525,44640,524287,0
3526,44687,524287,0
3527,44702,524287,0
3528,44763,524287,0
3529,44785,524287,0
3530,44853,524287,0
3531,44874,524287,0
3532,44946,524287,0
3533,44975,524287,0
3534,45040,524287,0
3535,45069,524287,0
3536,45130,524287,0
3537,45154,524287,0
3538,45210,524287,0
3539,45228,524287,0
3540,45277,524287,0
3541,45291,524287,0
3542,45340,524287,0
3543,45356,524287,0
3544,45399,524287,0
3545,45411,524287,0
3546,45449,524287,0
3547,45458,524287,0
3548,45493,524287,0
3549,45502,524287,0
3550,45537,524287,0
3551,45546,524287,0
3552,45574,524287,0
3553,45581,524287,0
3554,45595,524287,0
3555,45550,524287,0
3556,45487,524287,0
3557,45348,524287,0
3558,45177,524287,0
3559,44951,524287,0
3560,44738,524287,0
3561,44523,524287,0
3562,44346,524287,0
3563,44194,524287,0
3564,44092,524287,0
3565,44010,524287,0
3566,43981,524287,0
3567,43962,524287,0
3568,43973,524287,0
3569,43982,524287,0
3570,44013,524287,0
3571,44037,524287,0
3572,44069,524287,0
3573,44097,524287,0
3574,44131,524287,0
3575,44148,524287,0
3576,44169,524287,0
3577,44187,524287,0
3578,44210,524287,0
3579,44239,524287,0
3580,44268,524287,0
3581,44304,524287,0
3582,44339,524287,0
3583,44360,524287,0
3584,44376,524287,0
3585,44385,524287,0
3586,44391,524287,0
3587,44384,524287,0
3588,44368,524287,0
3589,44354,524287,0
3590,44339,524287,0
3591,44329,524287,0
3592,44321,524287,0
3593,44329,524287,0
3594,44334,524287,0
3595,44356,524287,0
3596,44381,524287,0
3597,44415,524287,0
3598,44447,524287,0
3599,44494,524287,0
3600,44533,524287,0
3601,44580,524287,0
3602,44620,524287,0
3603,44678,524287,0
3604,44717,524287,0
3605,44770,524287,0
3606,44805,524287,0
3607,44855,524287,0
3608,44892,524287,0
3609,44938,524287,0
3610,44970,524287,0
3611,45019,524287,0
3612,45046,524287,0
3613,45087,524287,0
3614,45113,524287,0
3615,45153,524287,0
3616,45172,524287,0
3617,45200,524287,0
3618,45223,524287,0
3619,45249,524287,0
3620,45271,524287,0
3621,45292,524287,0
3622,45309,524287,0
3623,45333,524287,0
3624,45342,524287,0
3625,45366,524287,0
3626,45373,524287,0
3627,45372,524287,0
3628,45332,524287,0
3629,45258,524287,0
3630,45122,524287,0
3631,44950,524287,0
3632,44740,524287,0
3633,44534,524287,0
3634,44334,524287,0
3635,44173,524287,0
3636,44036,524287,0
3637,43942,524287,0
3638,43883,524287,0
3639,43856,524287,0
3640,43840,524287,0
3641,43849,524287,0
3642,43869,524287,0
3643,43898,524287,0
3644,43935,524287,0
3645,43966,524287,0
3646,43992,524287,0
3647,44008,524287,0
3648,44016,524287,0
3649,44021,524287,0
3650,44037,524287,0
3651,44062,524287,0
3652,44096,524287,0
3653,44125,524287,0
3654,44158,524287,0
3655,44186,524287,0
3656,44205,524287,0
3657,44216,524287,0
3658,44219,524287,0
3659,44209,524287,0
3660,44204,524287,0
3661,44184,524287,0
3662,44174,524287,0
3663,44161,524287,0
3664,44159,524287,0
3665,44151,524287,0
3666,44167,524287,0
3667,44171,524287,0
3668,44214,524287,0
3669,44235,524287,0
3670,44287,524287,0
3671,44317,524287,0
3672,44377,524287,0
3673,44413,524287,0
3674,44474,524287,0
3675,44509,524287,0
3676,44570,524287,0
3677,44593,524287,0
3678,44655,524287,0
3679,44679,524287,0
3680,44738,524287,0
3681,44751,524287,0
3682,44800,524287,0
3683,44811,524287,0
3684,44854,524287,0
3685,44864,524287,0
3686,44904,524287,0
3687,44906,524287,0
3688,44940,524287,0
3689,44942,524287,0
3690,44982,524287,0
3691,44978,524287,0
3692,45017,524287,0
3693,45021,524287,0
3694,45055,524287,0
3695,45049,524287,0
3696,45076,524287,0
3697,45060,524287,0
3698,45057,524287,0
3699,44989,524287,0
3700,44898,524287,0
3701,44738,524287,0
3702,44580,524287,0
3703,44386,524287,0
3704,44229,524287,0
3705,44069,524287,0
3706,43963,524287,0
3707,43867,524287,0
3708,43836,524287,0
3709,43807,524287,0
3710,43853,524287,0
3711,43886,524287,0
3712,43950,524287,0
3713,43998,524287,0
3714,44059,524287,0
3715,44105,524287,0
3716,44157,524287,0
3717,44187,524287,0
3718,44220,524287,0
3719,44239,524287,0
3720,44270,524287,0
3721,44314,524287,0
3722,44382,524287,0
3723,44444,524287,0
3724,44482,524287,0
3725,44493,524287,0
3726,44476,524287,0
3727,44449,524287,0
3728,44409,524287,0
3729,44380,524287,0
3730,44346,524287,0
3731,44328,524287,0
3732,44299,524287,0
3733,44281,524287,0
3734,44252,524287,0
3735,44256,524287,0
3736,44250,524287,0
3737,44273,524287,0
3738,44283,524287,0
3739,44323,524287,0
3740,44335,524287,0
3741,44382,524287,0
3742,44385,524287,0
3743,44421,524287,0
3744,44429,524287,0
3745,44479,524287,0
3746,44490,524287,0
3747,44547,524287,0
3748,44560,524287,0
3749,44608,524287,0
3750,44619,524287,0
3751,44662,524287,0
3752,44670,524287,0
3753,44714,524287,0
3754,44717,524287,0
3755,44762,524287,0
3756,44766,524287,0
3757,44812,524287,0
3758,44814,524287,0
3759,44857,524287,0
3760,44859,524287,0
3761,44897,524287,0
3762,44898,524287,0
3763,44939,524287,0
3764,44944,524287,0
3765,44980,524287,0
3766,44979,524287,0
3767,45009,524287,0
3768,44988,524287,0
3769,44976,524287,0
3770,44891,524287,0
3771,44785,524287,0
3772,44603,524287,0
3773,44424,524287,0
3774,44224,524287,0
3775,44063,524287,0
3776,43909,524287,0
3777,43810,524287,0
3778,43733,524287,0
3779,43705,524287,0
3780,43686,524287,0
3781,43706,524287,0
3782,43729,524287,0
3783,43763,524287,0
3784,43797,524287,0
3785,43838,524287,0
3786,43870,524287,0
3787,43913,524287,0
3788,43937,524287,0
3789,43964,524287,0
3790,43978,524287,0
3791,43990,524287,0
3792,44008,524287,0
3793,44035,524287,0
3794,44073,524287,0
3795,44106,524287,0
3796,44137,524287,0
3797,44163,524287,0
3798,44188,524287,0
3799,44198,524287,0
3800,44206,524287,0
3801,44201,524287,0
3802,44206,524287,0
3803,44195,524287,0
3804,44196,524287,0
3805,44182,524287,0
3806,44190,524287,0
3807,44197,524287,0
3808,44220,524287,0
3809,44237,524287,0
3810,44277,524287,0
3811,44305,524287,0
3812,44353,524287,0
3813,44383,524287,0
3814,44435,524287,0
3815,44481,524287,0
3816,44535,524287,0
3817,44577,524287,0
3818,44627,524287,0
3819,44663,524287,0
3820,44700,524287,0
3821,44731,524287,0
3822,44762,524287,0
3823,44775,524287,0
3824,44791,524287,0
3825,44791,524287,0
3826,44811,524287,0
3827,44823,524287,0
3828,44835,524287,0
3829,44845,524287,0
3830,44860,524287,0
3831,44868,524287,0
3832,44887,524287,0
3833,44890,524287,0
3834,44908,524287,0
3835,44926,524287,0
3836,44950,524287,0
3837,44967,524287,0
3838,44995,524287,0
3839,45008,524287,0
3840,45028,524287,0
3841,45046,524287,0
3842,45063,524287,0
3843,45049,524287,0
3844,45010,524287,0
3845,44920,524287,0
3846,44791,524287,0
3847,44614,524287,0
3848,44430,524287,0
3849,44245,524287,0
3850,44077,524287,0
3851,43934,524287,0
3852,43836,524287,0
3853,43767,524287,0
3854,43732,524287,0
3855,43711,524287,0
3856,43720,524287,0
3857,43736,524287,0
3858,43759,524287,0
3859,43784,524287,0
3860,43805,524287,0
3861,43827,524287,0
3862,43840,524287,0
3863,43851,524287,0
3864,43847,524287,0
3865,43854,524287,0
3866,43851,524287,0
3867,43877,524287,0
3868,43904,524287,0
3869,43938,524287,0
3870,43974,524287,0
3871,44012,524287,0
3872,44032,524287,0
3873,44058,524287,0
3874,44073,524287,0
3875,44080,524287,0
3876,44075,524287,0
3877,44079,524287,0
3878,44064,524287,0
3879,44070,524287,0
3880,44062,524287,0
3881,44077,524287,0
3882,44081,524287,0
3883,44107,524287,0
3884,44128,524287,0
3885,44167,524287,0
3886,44190,524287,0
3887,44236,524287,0
3888,44278,524287,0
3889,44326,524287,0
3890,44365,524287,0
3891,44416,524287,0
3892,44453,524287,0
3893,44501,524287,0
3894,44539,524287,0
3895,44589,524287,0
3896,44628,524287,0
3897,44674,524287,0
3898,44707,524287,0
3899,44748,524287,0
3900,44775,524287,0
3901,44805,524287,0
3902,44820,524287,0
3903,44838,524287,0
3904,44853,524287,0
3905,44880,524287,0
3906,44908,524287,0
3907,44933,524287,0
3908,44958,524287,0
3909,44980,524287,0
3910,44992,524287,0
3911,45004,524287,0
3912,45025,524287,0
3913,45040,524287,0
3914,45073,524287,0
3915,45104,524287,0
3916,45138,524287,0
3917,45165,524287,0
3918,45198,524287,0
3919,45221,524287,0
3920,45256,524287,0
3921,45271,524287,0
3922,45266,524287,0
3923,45216,524287,0
3924,45122,524287,0
3925,44971,524287,0
3926,44789,524287,0
3927,44585,524287,0
3928,44403,524287,0
3929,44235,524287,0
3930,44095,524287,0
3931,43982,524287,0
3932,43914,524287,0
3933,43875,524287,0
3934,43866,524287,0
3935,43876,524287,0
3936,43906,524287,0
3937,43939,524287,0
3938,43977,524287,0
3939,44002,524287,0
3940,44034,524287,0
3941,44042,524287,0
3942,44055,524287,0
3943,44055,524287,0
3944,44065,524287,0
3945,44072,524287,0
3946,44107,524287,0
3947,44126,524287,0
3948,44174,524287,0
3949,44191,524287,0
3950,44220,524287,0
3951,44233,524287,0
3952,44258,524287,0
3953,44246,524287,0
3954,44257,524287,0
3955,44233,524287,0
3956,44228,524287,0
3957,44208,524287,0
3958,44215,524287,0
3959,44201,524287,0
3960,44222,524287,0
3961,44227,524287,0
3962,44265,524287,0
3963,44286,524287,0
3964,44337,524287,0
3965,44364,524287,0
3966,44418,524287,0
3967,44451,524287,0
3968,44508,524287,0
3969,44536,524287,0
3970,44589,524287,0
3971,44613,524287,0
3972,44662,524287,0
3973,44682,524287,0
3974,44728,524287,0
3975,44739,524287,0
3976,44784,524287,0
3977,44787,524287,0
3978,44822,524287,0
3979,44824,524287,0
3980,44853,524287,0
3981,44851,524287,0
3982,44880,524287,0
3983,44874,524287,0
3984,44906,524287,0
3985,44903,524287,0
3986,44931,524287,0
3987,44928,524287,0
3988,44958,524287,0
3989,44952,524287,0
3990,44994,524287,0
3991,45002,524287,0
3992,45045,524287,0
3993,45065,524287,0
3994,45117,524287,0
3995,45128,524287,0
3996,45166,524287,0
3997,45163,524287,0
3998,45166,524287,0
3999,45104,524287,0
4000,45017,524287,0
4001,44858,524287,0
4002,44700,524287,0
4003,44506,524287,0
4004,44361,524287,0
4005,44217,524287,0
4006,44127,524287,0
4007,44044,524287,0
4008,44001,524287,0
4009,43982,524287,0
4010,44003,524287,0
4011,44018,524287,0
4012,44078,524287,0
4013,44111,524287,0
4014,44169,524287,0
4015,44206,524287,0
4016,44258,524287,0
4017,44281,524287,0
4018,44320,524287,0
4019,44333,524287,0
4020,44363,524287,0
4021,44371,524287,0
4022,44406,524287,0
4023,44418,524287,0
4024,44444,524287,0
4025,44450,524287,0
4026,44483,524287,0
4027,44487,524287,0
4028,44501,524287,0
4029,44488,524287,0
4030,44481,524287,0
4031,44457,524287,0
4032,44448,524287,0
4033,44421,524287,0
4034,44409,524287,0
4035,44393,524287,0
4036,44398,524287,0
4037,44402,524287,0
4038,44433,524287,0
4039,44457,524287,0
4040,44498,524287,0
4041,44538,524287,0
4042,44583,524287,0
4043,44619,524287,0
4044,44666,524287,0
4045,44703,524287,0
4046,44746,524287,0
4047,44787,524287,0
4048,44821,524287,0
4049,44859,524287,0
4050,44889,524287,0
4051,44922,524287,0
4052,44950,524287,0
4053,44972,524287,0
4054,45000,524287,0
4055,45029,524287,0
4056,45045,524287,0
4057,45067,524287,0
4058,45073,524287,0
4059,45096,524287,0
4060,45107,524287,0
4061,45127,524287,0
4062,45139,524287,0
4063,45161,524287,0
4064,45171,524287,0
4065,45199,524287,0
4066,45208,524287,0
4067,45233,524287,0
4068,45247,524287,0
4069,45277,524287,0
4070,45294,524287,0
4071,45328,524287,0
4072,45342,524287,0
4073,45375,524287,0
4074,45382,524287,0
4075,45378,524287,0
4076,45304,524287,0
4077,45200,524287,0
4078,45017,524287,0
4079,44825,524287,0
4080,44612,524287,0
4081,44437,524287,0
4082,44264,524287,0
4083,44143,524287,0
4084,44032,524287,0
4085,43975,524287,0
4086,43915,524287,0
4087,43923,524287,0
4088,43908,524287,0
4089,43943,524287,0
4090,43954,524287,0
4091,43993,524287,0
4092,44000,524287,0
4093,44031,524287,0
4094,44029,524287,0
4095,44043,524287,0
4096,44026,524287,0
4097,44040,524287,0
4098,44025,524287,0
4099,44051,524287,0
4100,44066,524287,0
4101,44101,524287,0
4102,44119,524287,0
4103,44160,524287,0
4104,44167,524287,0
4105,44201,524287,0
4106,44191,524287,0
4107,44203,524287,0
4108,44183,524287,0
4109,44185,524287,0
4110,44150,524287,0
4111,44153,524287,0
4112,44133,524287,0
4113,44150,524287,0
4114,44143,524287,0
4115,44179,524287,0
4116,44201,524287,0
4117,44245,524287,0
4118,44263,524287,0
4119,44295,524287,0
4120,44312,524287,0
4121,44346,524287,0
4122,44372,524287,0
4123,44425,524287,0
4124,44459,524287,0
4125,44519,524287,0
4126,44553,524287,0
4127,44606,524287,0
4128,44640,524287,0
4129,44685,524287,0
4130,44713,524287,0
4131,44750,524287,0
4132,44772,524287,0
4133,44807,524287,0
4134,44834,524287,0
4135,44855,524287,0
4136,44874,524287,0
4137,44905,524287,0
4138,44920,524287,0
4139,44943,524287,0
4140,44961,524287,0
4141,44989,524287,0
4142,45007,524287,0
4143,45028,524287,0
4144,45041,524287,0
4145,45064,524287,0
4146,45085,524287,0
4147,45109,524287,0
4148,45140,524287,0
4149,45166,524287,0
4150,45198,524287,0
4151,45214,524287,0
4152,45245,524287,0
4153,45266,524287,0
4154,45297,524287,0
4155,45309,524287,0
4156,45331,524287,0
4157,45326,524287,0
4158,45288,524287,0
4159,45185,524287,0
4160,45041,524287,0
4161,44845,524287,0
4162,44643,524287,0
4163,44421,524287,0
4164,44237,524287,0
4165,44064,524287,0
4166,43943,524287,0
4167,43842,524287,0
4168,43800,524287,0
4169,43751,524287,0
4170,43754,524287,0
4171,43752,524287,0
4172,43773,524287,0
4173,43792,524287,0
4174,43829,524287,0
4175,43843,524287,0
4176,43875,524287,0
4177,43878,524287,0
4178,43901,524287,0
4179,43912,524287,0
4180,43942,524287,0
4181,43962,524287,0
4182,44001,524287,0
4183,44022,524287,0
4184,44075,524287,0
4185,44096,524287,0
4186,44130,524287,0
4187,44147,524287,0
4188,44168,524287,0
4189,44174,524287,0
4190,44179,524287,0
4191,44170,524287,0
4192,44167,524287,0
4193,44159,524287,0
4194,44163,524287,0
4195,44165,524287,0
4196,44174,524287,0
4197,44185,524287,0
4198,44204,524287,0
4199,44235,524287,0
4200,44273,524287,0
4201,44318,524287,0
4202,44356,524287,0
4203,44399,524287,0
4204,44439,524287,0
4205,44486,524287,0
4206,44529,524287,0
4207,44575,524287,0
4208,44614,524287,0
4209,44658,524287,0
4210,44694,524287,0
4211,44740,524287,0
4212,44776,524287,0
4213,44824,524287,0
4214,44861,524287,0
4215,44907,524287,0
4216,44935,524287,0
4217,44981,524287,0
4218,45006,524287,0
4219,45044,524287,0
4220,45059,524287,0
4221,45098,524287,0
4222,45107,524287,0
4223,45142,524287,0
4224,45146,524287,0
4225,45179,524287,0
4226,45186,524287,0
4227,45228,524287,0
4228,45240,524287,0
4229,45283,524287,0
4230,45295,524287,0
4231,45346,524287,0
4232,45359,524287,0
4233,45412,524287,0
4234,45423,524287,0
4235,45483,524287,0
4236,45496,524287,0
4237,45552,524287,0
4238,45565,524287,0
4239,45625,524287,0
4240,45635,524287,0
4241,45674,524287,0
4242,45635,524287,0
4243,45603,524287,0
4244,45463,524287,0
4245,45313,524287,0
4246,45088,524287,0
4247,44900,524287,0
4248,44676,524287,0
4249,44532,524287,0
4250,44372,524287,0
4251,44304,524287,0
4252,44217,524287,0
4253,44208,524287,0
4254,44177,524287,0
4255,44215,524287,0
4256,44211,524287,0
4257,44264,524287,0
4258,44281,524287,0
4259,44331,524287,0
4260,44346,524287,0
4261,44396,524287,0
4262,44402,524287,0
4263,44442,524287,0
4264,44448,524287,0
4265,44502,524287,0
4266,44518,524287,0
4267,44573,524287,0
4268,44595,524287,0
4269,44640,524287,0
4270,44648,524287,0
4271,44679,524287,0
4272,44665,524287,0
4273,44671,524287,0
4274,44640,524287,0
4275,44630,524287,0
4276,44600,524287,0
4277,44594,524287,0
4278,44571,524287,0
4279,44577,524287,0
4280,44573,524287,0
4281,44600,524287,0
4282,44615,524287,0
4283,44659,524287,0
4284,44691,524287,0
4285,44744,524287,0
4286,44787,524287,0
4287,44843,524287,0
4288,44889,524287,0
4289,44942,524287,0
4290,44998,524287,0
4291,45043,524287,0
4292,45090,524287,0
4293,45130,524287,0
4294,45171,524287,0
4295,45206,524287,0
4296,45243,524287,0
4297,45276,524287,0
4298,45311,524287,0
4299,45334,524287,0
4300,45368,524287,0
4301,45387,524287,0
4302,45416,524287,0
4303,45432,524287,0
4304,45453,524287,0
4305,45468,524287,0
4306,45493,524287,0
4307,45508,524287,0
4308,45538,524287,0
4309,45556,524287,0
4310,45589,524287,0
4311,45608,524287,0
4312,45640,524287,0
4313,45664,524287,0
4314,45702,524287,0
4315,45723,524287,0
4316,45758,524287,0
4317,45773,524287,0
4318,45787,524287,0
4319,45755,524287,0
4320,45691,524287,0
4321,45554,524287,0
4322,45381,524287,0
4323,45173,524287,0
4324,44970,524287,0
4325,44771,524287,0
4326,44609,524287,0
4327,44471,524287,0
4328,44370,524287,0
4329,44306,524287,0
4330,44272,524287,0
4331,44254,524287,0
4332,44261,524287,0
4333,44279,524287,0
4334,44308,524287,0
4335,44333,524287,0
4336,44365,524287,0
4337,44391,524287,0
4338,44412,524287,0
4339,44426,524287,0
4340,44445,524287,0
4341,44451,524287,0
4342,44466,524287,0
4343,44490,524287,0
4344,44520,524287,0
4345,44553,524287,0
4346,44583,524287,0
4347,44609,524287,0
4348,44630,524287,0
4349,44643,524287,0
4350,44656,524287,0
4351,44660,524287,0
4352,44643,524287,0
4353,44637,524287,0
4354,44619,524287,0
4355,44625,524287,0
4356,44609,524287,0
4357,44621,524287,0
4358,44626,524287,0
4359,44655,524287,0
4360,44674,524287,0
4361,44715,524287,0
4362,44738,524287,0
4363,44785,524287,0
4364,44818,524287,0
4365,44877,524287,0
4366,44911,524287,0
4367,44963,524287,0
4368,45002,524287,0
4369,45060,524287,0
4370,45086,524287,0
4371,45138,524287,0
4372,45169,524287,0
4373,45214,524287,0
4374,45241,524287,0
4375,45279,524287,0
4376,45307,524287,0
4377,45340,524287,0
4378,45359,524287,0
4379,45398,524287,0
4380,45412,524287,0
4381,45441,524287,0
4382,45452,524287,0
4383,45485,524287,0
4384,45490,524287,0
4385,45521,524287,0
4386,45537,524287,0
4387,45569,524287,0
4388,45578,524287,0
4389,45608,524287,0
4390,45624,524287,0
4391,45659,524287,0
4392,45679,524287,0
4393,45709,524287,0
4394,45736,524287,0
4395,45776,524287,0
4396,45798,524287,0
4397,45835,524287,0
4398,45867,524287,0
4399,45893,524287,0
4400,45909,524287,0
4401,45919,524287,0
4402,45882,524287,0
4403,45793,524287,0
4404,45642,524287,0
4405,45437,524287,0
4406,45213,524287,0
4407,44987,524287,0
4408,44784,524287,0
4409,44603,524287,0
4410,44462,524287,0
4411,44355,524287,0
4412,44288,524287,0
4413,44249,524287,0
4414,44237,524287,0
4415,44240,524287,0
4416,44254,524287,0
4417,44278,524287,0
4418,44310,524287,0
4419,44331,524287,0
4420,44357,524287,0
4421,44372,524287,0
4422,44392,524287,0
4423,44398,524287,0
4424,44412,524287,0
4425,44417,524287,0
4426,44437,524287,0
4427,44455,524287,0
4428,44493,524287,0
4429,44518,524287,0
4430,44554,524287,0
4431,44569,524287,0
4432,44595,524287,0
4433,44601,524287,0
4434,44625,524287,0
4435,44616,524287,0
4436,44631,524287,0
4437,44613,524287,0
4438,44624,524287,0
4439,44611,524287,0
4440,44633,524287,0
4441,44628,524287,0
4442,44666,524287,0
4443,44675,524287,0
4444,44723,524287,0
4445,44743,524287,0
4446,44801,524287,0
4447,44833,524287,0
4448,44898,524287,0
4449,44930,524287,0
4450,44999,524287,0
4451,45033,524287,0
4452,45098,524287,0
4453,45123,524287,0
4454,45195,524287,0
4455,45217,524287,0
4456,45284,524287,0
4457,45308,524287,0
4458,45364,524287,0
4459,45379,524287,0
4460,45436,524287,0
4461,45450,524287,0
4462,45498,524287,0
4463,45515,524287,0
4464,45561,524287,0
4465,45572,524287,0
4466,45614,524287,0
4467,45625,524287,0
4468,45663,524287,0
4469,45677,524287,0
4470,45718,524287,0
4471,45726,524287,0
4472,45769,524287,0
4473,45782,524287,0
4474,45821,524287,0
4475,45839,524287,0
4476,45880,524287,0
4477,45899,524287,0
4478,45945,524287,0
4479,45960,524287,0
4480,46006,524287,0
4481,46036,524287,0
4482,46083,524287,0
4483,46111,524287,0
4484,46160,524287,0
4485,46180,524287,0
4486,46212,524287,0
4487,46202,524287,0
4488,46147,524287,0
4489,46029,524287,0
4490,45860,524287,0
4491,45633,524287,0
4492,45408,524287,0
4493,45183,524287,0
4494,45000,524287,0
4495,44831,524287,0
4496,44711,524287,0
4497,44625,524287,0
4498,44577,524287,0
4499,44553,524287,0
4500,44555,524287,0
4501,44572,524287,0
4502,44603,524287,0
4503,44637,524287,0
4504,44673,524287,0
4505,44703,524287,0
4506,44735,524287,0
4507,44757,524287,0
4508,44783,524287,0
4509,44797,524287,0
4510,44816,524287,0
4511,44843,524287,0
4512,44872,524287,0
4513,44903,524287,0
4514,44927,524287,0
4515,44953,524287,0
4516,44961,524287,0
4517,44964,524287,0
4518,44955,524287,0
4519,44945,524287,0
4520,44920,524287,0
4521,44898,524287,0
4522,44871,524287,0
4523,44853,524287,0
4524,44828,524287,0
4525,44827,524287,0
4526,44826,524287,0
4527,44848,524287,0
4528,44863,524287,0
4529,44903,524287,0
4530,44926,524287,0
4531,44977,524287,0
4532,45013,524287,0
4533,45067,524287,0
4534,45111,524287,0
4535,45164,524287,0
4536,45200,524287,0
4537,45260,524287,0
4538,45292,524287,0
4539,45346,524287,0
4540,45375,524287,0
4541,45430,524287,0
4542,45450,524287,0
4543,45493,524287,0
4544,45513,524287,0
4545,45555,524287,0
4546,45570,524287,0
4547,45605,524287,0
4548,45607,524287,0
4549,45634,524287,0
4550,45642,524287,0
4551,45673,524287,0
4552,45677,524287,0
4553,45711,524287,0
4554,45722,524287,0
4555,45751,524287,0
4556,45762,524287,0
4557,45800,524287,0
4558,45814,524287,0
4559,45852,524287,0
4560,45871,524287,0
4561,45907,524287,0
4562,45920,524287,0
4563,45934,524287,0
4564,45890,524287,0
4565,45821,524287,0
4566,45678,524287,0
4567,45510,524287,0
4568,45285,524287,0
4569,45080,524287,0
4570,44876,524287,0
4571,44717,524287,0
4572,44570,524287,0
4573,44485,524287,0
4574,44415,524287,0
4575,44391,524287,0
4576,44375,524287,0
4577,44388,524287,0
4578,44401,524287,0
4579,44438,524287,0
4580,44464,524287,0
4581,44503,524287,0
4582,44522,524287,0
4583,44552,524287,0
4584,44567,524287,0
4585,44593,524287,0
4586,44600,524287,0
4587,44623,524287,0
4588,44643,524287,0
4589,44675,524287,0
4590,44701,524287,0
4591,44734,524287,0
4592,44755,524287,0
4593,44767,524287,0
4594,44773,524287,0
4595,44768,524287,0
4596,44753,524287,0
4597,44739,524287,0
4598,44721,524287,0
4599,44703,524287,0
4600,44694,524287,0
4601,44683,524287,0
4602,44692,524287,0
4603,44689,524287,0
4604,44715,524287,0
4605,44737,524287,0
4606,44778,524287,0
4607,44805,524287,0
4608,44846,524287,0
4609,44885,524287,0
4610,44933,524287,0
4611,44975,524287,0
4612,45025,524287,0
4613,45062,524287,0
4614,45113,524287,0
4615,45146,524287,0
4616,45199,524287,0
4617,45226,524287,0
4618,45270,524287,0
4619,45294,524287,0
4620,45337,524287,0
4621,45361,524287,0
4622,45395,524287,0
4623,45415,524287,0
4624,45444,524287,0
4625,45463,524287,0
4626,45490,524287,0
4627,45505,524287,0
4628,45526,524287,0
4629,45540,524287,0
4630,45565,524287,0
4631,45585,524287,0
4632,45609,524287,0
4633,45622,524287,0
4634,45654,524287,0
4635,45672,524287,0
4636,45707,524287,0
4637,45726,524287,0
4638,45756,524287,0
4639,45785,524287,0
4640,45808,524287,0
4641,45823,524287,0
4642,45813,524287,0
4643,45766,524287,0
4644,45659,524287,0
4645,45496,524287,0
4646,45289,524287,0
4647,45071,524287,0
4648,44850,524287,0
4649,44673,524287,0
4650,44505,524287,0
4651,44388,524287,0
4652,44287,524287,0
4653,44239,524287,0
4654,44196,524287,0
4655,44195,524287,0
4656,44189,524287,0
4657,44222,524287,0
4658,44223,524287,0
4659,44264,524287,0
4660,44268,524287,0
4661,44301,524287,0
4662,44295,524287,0
4663,44318,524287,0
4664,44304,524287,0
4665,44326,524287,0
4666,44318,524287,0
4667,44350,524287,0
4668,44353,524287,0
4669,44394,524287,0
4670,44403,524287,0
4671,44447,524287,0
4672,44449,524287,0
4673,44487,524287,0
4674,44470,524287,0
4675,44497,524287,0
4676,44471,524287,0
4677,44498,524287,0
4678,44466,524287,0
4679,44492,524287,0
4680,44467,524287,0
4681,44492,524287,0
4682,44481,524287,0
4683,44521,524287,0
4684,44514,524287,0
4685,44567,524287,0
4686,44570,524287,0
4687,44634,524287,0
4688,44645,524287,0
4689,44714,524287,0
4690,44730,524287,0
4691,44800,524287,0
4692,44814,524287,0
4693,44881,524287,0
4694,44893,524287,0
4695,44963,524287,0
4696,44974,524287,0
4697,45037,524287,0
4698,45048,524287,0
4699,45101,524287,0
4700,45113,524287,0
4701,45164,524287,0
4702,45171,524287,0
4703,45221,524287,0
4704,45228,524287,0
4705,45271,524287,0
4706,45278,524287,0
4707,45314,524287,0
4708,45322,524287,0
4709,45355,524287,0
4710,45367,524287,0
4711,45392,524287,0
4712,45406,524287,0
4713,45438,524287,0
4714,45453,524287,0
4715,45489,524287,0
4716,45507,524287,0
4717,45542,524287,0
4718,45573,524287,0
4719,45611,524287,0
4720,45643,524287,0
4721,45679,524287,0
4722,45711,524287,0
4723,45736,524287,0
4724,45748,524287,0
4725,45733,524287,0
4726,45681,524287,0
4727,45555,524287,0
4728,45390,524287,0
4729,45179,524287,0
4730,44970,524287,0
4731,44766,524287,0
4732,44597,524287,0
4733,44445,524287,0
4734,44344,524287,0
4735,44267,524287,0
4736,44232,524287,0
4737,44214,524287,0
4738,44223,524287,0
4739,44241,524287,0
4740,44276,524287,0
4741,44306,524287,0
4742,44345,524287,0
4743,44378,524287,0
4744,44409,524287,0
4745,44422,524287,0
4746,44445,524287,0
4747,44454,524287,0
4748,44479,524287,0
4749,44489,524287,0
4750,44525,524287,0
4751,44553,524287,0
4752,44596,524287,0
4753,44615,524287,0
4754,44651,524287,0
4755,44660,524287,0
4756,44675,524287,0
4757,44675,524287,0
4758,44670,524287,0
4759,44663,524287,0
4760,44645,524287,0
4761,44629,524287,0
4762,44617,524287,0
4763,44601,524287,0
4764,44611,524287,0
4765,44619,524287,0
4766,44643,524287,0
4767,44671,524287,0
4768,44713,524287,0
4769,44756,524287,0
4770,44797,524287,0
4771,44835,524287,0
4772,44869,524287,0
4773,44904,524287,0
4774,44929,524287,0
4775,44955,524287,0
4776,44978,524287,0
4777,45002,524287,0
4778,45027,524287,0
4779,45058,524287,0
4780,45088,524287,0
4781,45111,524287,0
4782,45127,524287,0
4783,45149,524287,0
4784,45160,524287,0
4785,45185,524287,0
4786,45195,524287,0
4787,45215,524287,0
4788,45212,524287,0
4789,45216,524287,0
4790,45216,524287,0
4791,45224,524287,0
4792,45227,524287,0
4793,45237,524287,0
4794,45242,524287,0
4795,45263,524287,0
4796,45269,524287,0
4797,45289,524287,0
4798,45300,524287,0
4799,45331,524287,0
4800,45343,524287,0
4801,45366,524287,0
4802,45372,524287,0
4803,45401,524287,0
4804,45384,524287,0
4805,45345,524287,0
4806,45228,524287,0
4807,45079,524287,0
4808,44885,524287,0
4809,44693,524287,0
4810,44485,524287,0
4811,44318,524287,0
4812,44166,524287,0
4813,44061,524287,0
4814,43984,524287,0
4815,43942,524287,0
4816,43915,524287,0
4817,43921,524287,0
4818,43911,524287,0
4819,43941,524287,0
4820,43954,524287,0
4821,43991,524287,0
4822,44005,524287,0
4823,44029,524287,0
4824,44034,524287,0
4825,44057,524287,0
4826,44061,524287,0
4827,44087,524287,0
4828,44107,524287,0
4829,44143,524287,0
4830,44168,524287,0
4831,44197,524287,0
4832,44215,524287,0
4833,44231,524287,0
4834,44226,524287,0
4835,44223,524287,0
4836,44203,524287,0
4837,44192,524287,0
4838,44170,524287,0
4839,44159,524287,0
4840,44142,524287,0
4841,44149,524287,0
4842,44147,524287,0
4843,44164,524287,0
4844,44181,524287,0
4845,44209,524287,0
4846,44238,524287,0
4847,44277,524287,0
4848,44312,524287,0
4849,44354,524287,0
4850,44398,524287,0
4851,44437,524287,0
4852,44474,524287,0
4853,44511,524287,0
4854,44554,524287,0
4855,44587,524287,0
4856,44621,524287,0
4857,44649,524287,0
4858,44682,524287,0
4859,44705,524287,0
4860,44737,524287,0
4861,44757,524287,0
4862,44781,524287,0
4863,44799,524287,0
4864,44824,524287,0
4865,44833,524287,0
4866,44860,524287,0
4867,44873,524287,0
4868,44891,524287,0
4869,44911,524287,0
4870,44934,524287,0
4871,44943,524287,0
4872,44968,524287,0
4873,44981,524287,0
4874,45008,524287,0
4875,45020,524287,0
4876,45040,524287,0
4877,45044,524287,0
4878,45039,524287,0
4879,44984,524287,0
4880,44900,524287,0
4881,44751,524287,0
4882,44583,524287,0
4883,44390,524287,0
4884,44225,524287,0
4885,44060,524287,0
4886,43941,524287,0
4887,43836,524287,0
4888,43781,524287,0
4889,43724,524287,0
4890,43719,524287,0
4891,43708,524287,0
4892,43728,524287,0
4893,43739,524287,0
4894,43773,524287,0
4895,43778,524287,0
4896,43818,524287,0
4897,43813,524287,0
4898,43835,524287,0
4899,43819,524287,0
4900,43832,524287,0
4901,43823,524287,0
4902,43852,524287,0
4903,43855,524287,0
4904,43898,524287,0
4905,43916,524287,0
4906,43958,524287,0
4907,43968,524287,0
4908,44000,524287,0
4909,43998,524287,0
4910,44016,524287,0
4911,44000,524287,0
4912,44012,524287,0
4913,43996,524287,0
4914,44007,524287,0
4915,43994,524287,0
4916,44011,524287,0
4917,44005,524287,0
4918,44036,524287,0
4919,44042,524287,0
4920,44084,524287,0
4921,44102,524287,0
4922,44146,524287,0
4923,44172,524287,0
4924,44219,524287,0
4925,44238,524287,0
4926,44290,524287,0
4927,44318,524287,0
4928,44365,524287,0
4929,44387,524287,0
4930,44436,524287,0
4931,44459,524287,0
4932,44494,524287,0
4933,44526,524287,0
4934,44566,524287,0
4935,44585,524287,0
4936,44623,524287,0
4937,44635,524287,0
4938,44668,524287,0
4939,44686,524287,0
4940,44711,524287,0
4941,44727,524287,0
4942,44750,524287,0
4943,44766,524287,0
4944,44789,524287,0
4945,44801,524287,0
4946,44824,524287,0
4947,44838,524287,0
4948,44861,524287,0
4949,44876,524287,0
4950,44905,524287,0
4951,44920,524287,0
4952,44953,524287,0
4953,44977,524287,0
4954,45002,524287,0
4955,45021,524287,0
4956,45044,524287,0
4957,45061,524287,0
4958,45073,524287,0
4959,45062,524287,0
4960,45017,524287,0
4961,44917,524287,0
4962,44778,524287,0
4963,44597,524287,0
4964,44412,524287,0
4965,44238,524287,0
4966,44094,524287,0
4967,43970,524287,0
4968,43884,524287,0
4969,43818,524287,0
4970,43789,524287,0
4971,43769,524287,0
4972,43771,524287,0
4973,43777,524287,0
4974,43806,524287,0
4975,43829,524287,0
4976,43862,524287,0
4977,43880,524287,0
4978,43896,524287,0
4979,43903,524287,0
4980,43896,524287,0
4981,43888,524287,0
4982,43886,524287,0
4983,43892,524287,0
4984,43912,524287,0
4985,43945,524287,0
4986,43973,524287,0
4987,44001,524287,0
4988,44034,524287,0
4989,44066,524287,0
4990,44093,524287,0
4991,44112,524287,0
4992,44120,524287,0
4993,44111,524287,0
4994,44103,524287,0
4995,44096,524287,0
4996,44089,524287,0
4997,44087,524287,0
4998,44093,524287,0
4999,44114,524287,0
5000,44135,524287,0
5001,44172,524287,0
5002,44204,524287,0
5003,44236,524287,0
5004,44268,524287,0
5005,44304,524287,0
5006,44330,524287,0
5007,44369,524287,0
5008,44398,524287,0
5009,44442,524287,0
5010,44479,524287,0
5011,44525,524287,0
5012,44568,524287,0
5013,44617,524287,0
5014,44650,524287,0
5015,44690,524287,0
5016,44712,524287,0
5017,44746,524287,0
5018,44762,524287,0
5019,44799,524287,0
5020,44810,524287,0
5021,44848,524287,0
5022,44860,524287,0
5023,44892,524287,0
5024,44901,524287,0
5025,44933,524287,0
5026,44930,524287,0
5027,44963,524287,0
5028,44972,524287,0
5029,45005,524287,0
5030,45016,524287,0
5031,45049,524287,0
5032,45059,524287,0
5033,45094,524287,0
5034,45109,524287,0
5035,45141,524287,0
5036,45155,524287,0
5037,45188,524287,0
5038,45204,524287,0
5039,45241,524287,0
5040,45263,524287,0
5041,45313,524287,0
5042,45340,524287,0
5043,45385,524287,0
5044,45413,524287,0
5045,45445,524287,0
5046,45459,524287,0
5047,45449,524287,0
5048,45396,524287,0
5049,45272,524287,0
5050,45093,524287,0
5051,44881,524287,0
5052,44663,524287,0
5053,44460,524287,0
5054,44294,524287,0
5055,44153,524287,0
5056,44055,524287,0
5057,43981,524287,0
5058,43943,524287,0
5059,43927,524287,0
5060,43936,524287,0
5061,43949,524287,0
5062,43977,524287,0
5063,44003,524287,0
5064,44043,524287,0
5065,44068,524287,0
5066,44092,524287,0
5067,44104,524287,0
5068,44125,524287,0
5069,44128,524287,0
5070,44145,524287,0
5071,44152,524287,0
5072,44170,524287,0
5073,44178,524287,0
5074,44205,524287,0
5075,44225,524287,0
5076,44253,524287,0
5077,44275,524287,0
5078,44293,524287,0
5079,44300,524287,0
5080,44296,524287,0
5081,44294,524287,0
5082,44283,524287,0
5083,44276,524287,0
5084,44266,524287,0
5085,44264,524287,0
5086,44263,524287,0
5087,44281,524287,0
5088,44293,524287,0
5089,44326,524287,0
5090,44351,524287,0
5091,44393,524287,0
5092,44427,524287,0
5093,44479,524287,0
5094,44507,524287,0
5095,44564,524287,0
5096,44588,524287,0
5097,44652,524287,0
5098,44678,524287,0
5099,44734,524287,0
5100,44761,524287,0
5101,44813,524287,0
5102,44832,524287,0
5103,44879,524287,0
5104,44886,524287,0
5105,44942,524287,0
5106,44951,524287,0
5107,45009,524287,0
5108,45023,524287,0
5109,45072,524287,0
5110,45079,524287,0
5111,45124,524287,0
5112,45123,524287,0
5113,45166,524287,0
5114,45159,524287,0
5115,45201,524287,0
5116,45194,524287,0
5117,45232,524287,0
5118,45229,524287,0
5119,45272,524287,0
5120,45275,524287,0
5121,45313,524287,0
5122,45326,524287,0
5123,45372,524287,0
5124,45386,524287,0
5125,45439,524287,0
5126,45445,524287,0
5127,45496,524287,0
5128,45498,524287,0
5129,45537,524287,0
5130,45536,524287,0
5131,45559,524287,0
5132,45544,524287,0
5133,45513,524287,0
5134,45416,524287,0
5135,45289,524287,0
5136,45110,524287,0
5137,44927,524287,0
5138,44737,524287,0
5139,44583,524287,0
5140,44440,524287,0
5141,44338,524287,0
5142,44268,524287,0
5143,44229,524287,0
5144,44215,524287,0
5145,44236,524287,0
5146,44263,524287,0
5147,44301,524287,0
5148,44341,524287,0
5149,44386,524287,0
5150,44419,524287,0
5151,44452,524287,0
5152,44483,524287,0
5153,44508,524287,0
5154,44533,524287,0
5155,44559,524287,0
5156,44597,524287,0
5157,44634,524287,0
5158,44668,524287,0
5159,44690,524287,0
5160,44723,524287,0
5161,44737,524287,0
5162,44737,524287,0
5163,44733,524287,0
5164,44724,524287,0
5165,44708,524287,0
5166,44694,524287,0
5167,44678,524287,0
5168,44678,524287,0
5169,44665,524287,0
5170,44672,524287,0
5171,44682,524287,0
5172,44702,524287,0
5173,44725,524287,0
5174,44760,524287,0
5175,44793,524287,0
5176,44834,524287,0
5177,44880,524287,0
5178,44924,524287,0
5179,44977,524287,0
5180,45030,524287,0
5181,45072,524287,0
5182,45120,524287,0
5183,45160,524287,0
5184,45207,524287,0
5185,45242,524287,0
5186,45284,524287,0
5187,45315,524287,0
5188,45352,524287,0
5189,45384,524287,0
5190,45418,524287,0
5191,45447,524287,0
5192,45477,524287,0
5193,45502,524287,0
5194,45538,524287,0
5195,45562,524287,0
5196,45585,524287,0
5197,45608,524287,0
5198,45633,524287,0
5199,45654,524287,0
5200,45677,524287,0
5201,45701,524287,0
5202,45722,524287,0
5203,45747,524287,0
5204,45773,524287,0
5205,45796,524287,0
5206,45824,524287,0
5207,45852,524287,0
5208,45882,524287,0
5209,45920,524287,0
5210,45943,524287,0
5211,45979,524287,0
5212,46002,524287,0
5213,46020,524287,0
5214,45998,524287,0
5215,45930,524287,0
5216,45813,524287,0
5217,45634,524287,0
5218,45421,524287,0
5219,45208,524287,0
5220,44985,524287,0
5221,44806,524287,0
5222,44646,524287,0
5223,44538,524287,0
5224,44445,524287,0
5225,44400,524287,0
5226,44364,524287,0
5227,44364,524287,0
5228,44358,524287,0
5229,44385,524287,0
5230,44400,524287,0
5231,44436,524287,0
5232,44440,524287,0
5233,44474,524287,0
5234,44484,524287,0
5235,44501,524287,0
5236,44493,524287,0
5237,44514,524287,0
5238,44517,524287,0
5239,44550,524287,0
5240,44563,524287,0
5241,44604,524287,0
5242,44622,524287,0
5243,44652,524287,0
5244,44662,524287,0
5245,44687,524287,0
5246,44682,524287,0
5247,44687,524287,0
5248,44669,524287,0
5249,44667,524287,0
5250,44652,524287,0
5251,44646,524287,0
5252,44634,524287,0
5253,44644,524287,0
5254,44650,524287,0
5255,44679,524287,0
5256,44687,524287,0
5257,44729,524287,0
5258,44748,524287,0
5259,44800,524287,0
5260,44827,524287,0
5261,44882,524287,0
5262,44913,524287,0
5263,44972,524287,0
5264,45001,524287,0
5265,45058,524287,0
5266,45089,524287,0
5267,45143,524287,0
5268,45165,524287,0
5269,45221,524287,0
5270,45238,524287,0
5271,45288,524287,0
5272,45297,524287,0
5273,45346,524287,0
5274,45355,524287,0
5275,45402,524287,0
5276,45409,524287,0
5277,45453,524287,0
5278,45447,524287,0
5279,45492,524287,0
5280,45488,524287,0
5281,45535,524287,0
5282,45530,524287,0
5283,45575,524287,0
5284,45572,524287,0
5285,45620,524287,0
5286,45619,524287,0
5287,45670,524287,0
5288,45668,524287,0
5289,45723,524287,0
5290,45726,524287,0
5291,45782,524287,0
5292,45792,524287,0
5293,45855,524287,0
5294,45862,524287,0
5295,45920,524287,0
5296,45930,524287,0
5297,45977,524287,0
5298,45966,524287,0
5299,45969,524287,0
5300,45882,524287,0
5301,45783,524287,0
5302,45575,524287,0
5303,45384,524287,0
5304,45138,524287,0
5305,44944,524287,0
5306,44734,524287,0
5307,44604,524287,0
5308,44461,524287,0
5309,44398,524287,0
5310,44328,524287,0
5311,44326,524287,0
5312,44298,524287,0
5313,44328,524287,0
5314,44323,524287,0
5315,44374,524287,0
5316,44385,524287,0
5317,44433,524287,0
5318,44436,524287,0
5319,44474,524287,0
5320,44470,524287,0
5321,44507,524287,0
5322,44499,524287,0
5323,44537,524287,0
5324,44541,524287,0
5325,44590,524287,0
5326,44599,524287,0
5327,44647,524287,0
5328,44645,524287,0
5329,44689,524287,0
5330,44671,524287,0
5331,44687,524287,0
5332,44661,524287,0
5333,44672,524287,0
5334,44642,524287,0
5335,44650,524287,0
5336,44625,524287,0
5337,44641,524287,0
5338,44628,524287,0
5339,44660,524287,0
5340,44659,524287,0
5341,44705,524287,0
5342,44721,524287,0
5343,44772,524287,0
5344,44800,524287,0
5345,44861,524287,0
5346,44884,524287,0
5347,44944,524287,0
5348,44973,524287,0
5349,45032,524287,0
5350,45064,524287,0
5351,45118,524287,0
5352,45146,524287,0
5353,45201,524287,0
5354,45228,524287,0
5355,45276,524287,0
5356,45296,524287,0
5357,45341,524287,0
5358,45364,524287,0
5359,45399,524287,0
5360,45424,524287,0
5361,45456,524287,0
5362,45479,524287,0
5363,45498,524287,0
5364,45520,524287,0
5365,45543,524287,0
5366,45555,524287,0
5367,45584,524287,0
5368,45591,524287,0
5369,45615,524287,0
5370,45631,524287,0
5371,45654,524287,0
5372,45670,524287,0
5373,45704,524287,0
5374,45725,524287,0
5375,45757,524287,0
5376,45777,524287,0
5377,45814,524287,0
5378,45847,524287,0
5379,45886,524287,0
5380,45913,524287,0
5381,45951,524287,0
5382,45972,524287,0
5383,45980,524287,0
5384,45968,524287,0
5385,45904,524287,0
5386,45768,524287,0
5387,45589,524287,0
5388,45375,524287,0
5389,45152,524287,0
5390,44942,524287,0
5391,44760,524287,0
5392,44619,524287,0
5393,44505,524287,0
5394,44440,524287,0
5395,44400,524287,0
5396,44389,524287,0
5397,44395,524287,0
5398,44423,524287,0
5399,44448,524287,0
5400,44488,524287,0
5401,44529,524287,0
5402,44574,524287,0
5403,44611,524287,0
5404,44649,524287,0
5405,44674,524287,0
5406,44706,524287,0
5407,44736,524287,0
5408,44779,524287,0
5409,44817,524287,0
5410,44851,524287,0
5411,44883,524287,0
5412,44905,524287,0
5413,44903,524287,0
5414,44900,524287,0
5415,44883,524287,0
5416,44857,524287,0
5417,44834,524287,0
5418,44800,524287,0
5419,44773,524287,0
5420,44740,524287,0
5421,44722,524287,0
5422,44712,524287,0
5423,44710,524287,0
5424,44725,524287,0
5425,44741,524287,0
5426,44772,524287,0
5427,44804,524287,0
5428,44833,524287,0
5429,44865,524287,0
5430,44885,524287,0
5431,44906,524287,0
5432,44934,524287,0
5433,44968,524287,0
5434,44995,524287,0
5435,45033,524287,0
5436,45063,524287,0
5437,45099,524287,0
5438,45126,524287,0
5439,45158,524287,0
5440,45181,524287,0
5441,45208,524287,0
5442,45228,524287,0
5443,45239,524287,0
5444,45253,524287,0
5445,45262,524287,0
5446,45264,524287,0
5447,45277,524287,0
5448,45277,524287,0
5449,45292,524287,0
5450,45290,524287,0
5451,45301,524287,0
5452,45300,524287,0
5453,45327,524287,0
5454,45325,524287,0
5455,45348,524287,0
5456,45360,524287,0
5457,45383,524287,0
5458,45380,524287,0
5459,45392,524287,0
5460,45358,524287,0
5461,45314,524287,0
5462,45196,524287,0
5463,45057,524287,0
5464,44856,524287,0
5465,44674,524287,0
5466,44457,524287,0
5467,44291,524287,0
5468,44120,524287,0
5469,44014,524287,0
5470,43908,524287,0
5471,43866,524287,0
5472,43817,524287,0
5473,43819,524287,0
5474,43800,524287,0
5475,43836,524287,0
5476,43843,524287,0
5477,43890,524287,0
5478,43897,524287,0
5479,43940,524287,0
5480,43938,524287,0
5481,43963,524287,0
5482,43961,524287,0
5483,43969,524287,0
5484,43965,524287,0
5485,43989,524287,0
5486,44000,524287,0
5487,44029,524287,0
5488,44030,524287,0
5489,44050,524287,0
5490,44051,524287,0
5491,44061,524287,0
5492,44048,524287,0
5493,44047,524287,0
5494,44037,524287,0
5495,44034,524287,0
5496,44022,524287,0
5497,44018,524287,0
5498,44010,524287,0
5499,44022,524287,0
5500,44024,524287,0
5501,44044,524287,0
5502,44064,524287,0
5503,44091,524287,0
5504,44124,524287,0
5505,44155,524287,0
5506,44199,524287,0
5507,44239,524287,0
5508,44290,524287,0
5509,44320,524287,0
5510,44376,524287,0
5511,44410,524287,0
5512,44461,524287,0
5513,44486,524287,0
5514,44535,524287,0
5515,44557,524287,0
5516,44606,524287,0
5517,44617,524287,0
5518,44665,524287,0
5519,44671,524287,0
5520,44714,524287,0
5521,44719,524287,0
5522,44753,524287,0
5523,44746,524287,0
5524,44786,524287,0
5525,44785,524287,0
5526,44814,524287,0
5527,44808,524287,0
5528,44843,524287,0
5529,44849,524287,0
5530,44883,524287,0
5531,44886,524287,0
5532,44929,524287,0
5533,44938,524287,0
5534,44976,524287,0
5535,44989,524287,0
5536,45023,524287,0
5537,45030,524287,0
5538,45052,524287,0
5539,45030,524287,0
5540,44988,524287,0
5541,44865,524287,0
5542,44719,524287,0
5543,44523,524287,0
5544,44328,524287,0
5545,44140,524287,0
5546,43978,524287,0
5547,43841,524287,0
5548,43737,524287,0
5549,43663,524287,0
5550,43620,524287,0
5551,43606,524287,0
5552,43601,524287,0
5553,43621,524287,0
5554,43632,524287,0
5555,43659,524287,0
5556,43678,524287,0
5557,43702,524287,0
5558,43711,524287,0
5559,43723,524287,0
5560,43716,524287,0
5561,43728,524287,0
5562,43717,524287,0
5563,43733,524287,0
5564,43740,524287,0
5565,43770,524287,0
5566,43789,524287,0
5567,43821,524287,0
5568,43826,524287,0
5569,43852,524287,0
5570,43850,524287,0
5571,43860,524287,0
5572,43855,524287,0
5573,43858,524287,0
5574,43851,524287,0
5575,43857,524287,0
5576,43854,524287,0
5577,43872,524287,0
5578,43881,524287,0
5579,43903,524287,0
5580,43925,524287,0
5581,43954,524287,0
5582,43979,524287,0
5583,44021,524287,0
5584,44052,524287,0
5585,44100,524287,0
5586,44142,524287,0
5587,44190,524287,0
5588,44227,524287,0
5589,44274,524287,0
5590,44313,524287,0
5591,44357,524287,0
5592,44394,524287,0
5593,44429,524287,0
5594,44466,524287,0
5595,44502,524287,0
5596,44529,524287,0
5597,44557,524287,0
5598,44581,524287,0
5599,44618,524287,0
5600,44648,524287,0
5601,44681,524287,0
5602,44708,524287,0
5603,44744,524287,0
5604,44777,524287,0
5605,44818,524287,0
5606,44851,524287,0
5607,44886,524287,0
5608,44917,524287,0
5609,44949,524287,0
5610,44991,524287,0
5611,45030,524287,0
5612,45079,524287,0
5613,45117,524287,0
5614,45161,524287,0
5615,45199,524287,0
5616,45239,524287,0
5617,45276,524287,0
5618,45329,524287,0
5619,45361,524287,0
5620,45379,524287,0
5621,45334,524287,0
5622,45245,524287,0
5623,45090,524287,0
5624,44908,524287,0
5625,44702,524287,0
5626,44518,524287,0
5627,44346,524287,0
5628,44218,524287,0
5629,44108,524287,0
5630,44046,524287,0
5631,44001,524287,0
5632,43994,524287,0
5633,43993,524287,0
5634,44028,524287,0
5635,44050,524287,0
5636,44096,524287,0
5637,44116,524287,0
5638,44147,524287,0
5639,44168,524287,0
5640,44188,524287,0
5641,44210,524287,0
5642,44235,524287,0
5643,44248,524287,0
5644,44278,524287,0
5645,44299,524287,0
5646,44325,524287,0
5647,44356,524287,0
5648,44378,524287,0
5649,44398,524287,0
5650,44406,524287,0
5651,44408,524287,0
5652,44401,524287,0
5653,44390,524287,0
5654,44371,524287,0
5655,44360,524287,0
5656,44347,524287,0
5657,44339,524287,0
5658,44335,524287,0
5659,44352,524287,0
5660,44365,524287,0
5661,44401,524287,0
5662,44432,524287,0
5663,44475,524287,0
5664,44514,524287,0
5665,44560,524287,0
5666,44601,524287,0
5667,44648,524287,0
5668,44691,524287,0
5669,44736,524287,0
5670,44774,524287,0
5671,44825,524287,0
5672,44859,524287,0
5673,44901,524287,0
5674,44926,524287,0
5675,44966,524287,0
5676,44994,524287,0
5677,45023,524287,0
5678,45045,524287,0
5679,45079,524287,0
5680,45095,524287,0
5681,45124,524287,0
5682,45135,524287,0
5683,45158,524287,0
5684,45171,524287,0
5685,45200,524287,0
5686,45213,524287,0
5687,45246,524287,0
5688,45258,524287,0
5689,45294,524287,0
5690,45305,524287,0
5691,45343,524287,0
5692,45345,524287,0
5693,45371,524287,0
5694,45356,524287,0
5695,45338,524287,0
5696,45251,524287,0
5697,45130,524287,0
5698,44943,524287,0
5699,44773,524287,0
5700,44570,524287,0
5701,44422,524287,0
5702,44261,524287,0
5703,44161,524287,0
5704,44063,524287,0
5705,44035,524287,0
5706,43995,524287,0
5707,44009,524287,0
5708,44002,524287,0
5709,44045,524287,0
5710,44050,524287,0
5711,44110,524287,0
5712,44115,524287,0
5713,44163,524287,0
5714,44165,524287,0
5715,44200,524287,0
5716,44200,524287,0
5717,44233,524287,0
5718,44240,524287,0
5719,44290,524287,0
5720,44308,524287,0
5721,44357,524287,0
5722,44370,524287,0
5723,44405,524287,0
5724,44398,524287,0
5725,44413,524287,0
5726,44391,524287,0
5727,44397,524287,0
5728,44367,524287,0
5729,44366,524287,0
5730,44338,524287,0
5731,44351,524287,0
5732,44339,524287,0
5733,44361,524287,0
5734,44372,524287,0
5735,44405,524287,0
5736,44429,524287,0
5737,44478,524287,0
5738,44510,524287,0
5739,44561,524287,0
5740,44600,524287,0
5741,44655,524287,0
5742,44690,524287,0
5743,44740,524287,0
5744,44773,524287,0
5745,44815,524287,0
5746,44846,524287,0
5747,44884,524287,0
5748,44910,524287,0
5749,44948,524287,0
5750,44971,524287,0
5751,45002,524287,0
5752,45020,524287,0
5753,45044,524287,0
5754,45064,524287,0
5755,45085,524287,0
5756,45099,524287,0
5757,45120,524287,0
5758,45134,524287,0
5759,45157,524287,0
5760,45169,524287,0
5761,45194,524287,0
5762,45211,524287,0
5763,45239,524287,0
5764,45259,524287,0
5765,45288,524287,0
5766,45315,524287,0
5767,45336,524287,0
5768,45362,524287,0
5769,45384,524287,0
5770,45400,524287,0
5771,45402,524287,0
5772,45383,524287,0
5773,45302,524287,0
5774,45173,524287,0
5775,44988,524287,0
5776,44788,524287,0
5777,44574,524287,0
5778,44394,524287,0
5779,44218,524287,0
5780,44087,524287,0
5781,43976,524287,0
5782,43918,524287,0
5783,43867,524287,0
5784,43859,524287,0
5785,43855,524287,0
5786,43875,524287,0
5787,43880,524287,0
5788,43906,524287,0
5789,43919,524287,0
5790,43946,524287,0
5791,43938,524287,0
5792,43949,524287,0
5793,43933,524287,0
5794,43942,524287,0
5795,43930,524287,0
5796,43953,524287,0
5797,43962,524287,0
5798,43993,524287,0
5799,44013,524287,0
5800,44050,524287,0
5801,44063,524287,0
5802,44092,524287,0
5803,44090,524287,0
5804,44102,524287,0
5805,44092,524287,0
5806,44099,524287,0
5807,44083,524287,0
5808,44094,524287,0
5809,44081,524287,0
5810,44094,524287,0
5811,44093,524287,0
5812,44113,524287,0
5813,44130,524287,0
5814,44159,524287,0
5815,44181,524287,0
5816,44227,524287,0
5817,44258,524287,0
5818,44309,524287,0
5819,44339,524287,0
5820,44392,524287,0
5821,44430,524287,0
5822,44472,524287,0
5823,44513,524287,0
5824,44556,524287,0
5825,44587,524287,0
5826,44619,524287,0
5827,44648,524287,0
5828,44672,524287,0
5829,44702,524287,0
5830,44726,524287,0
5831,44745,524287,0
5832,44768,524287,0
5833,44793,524287,0
5834,44809,524287,0
5835,44827,524287,0
